
# version 50001

data_dc02t01

loop_ 
_rlnMicrographMovieName #1 
_rlnTomoTiltMovieFrameCount #2 
_rlnTomoNominalStageTiltAngle #3 
_rlnTomoNominalTiltAxisAngle #4 
_rlnMicrographPreExposure #5 
_rlnTomoNominalDefocus #6 
_rlnCtfPowerSpectrum #7 
_rlnMicrographNameEven #8 
_rlnMicrographNameOdd #9 
_rlnMicrographName #10 
_rlnMicrographMetadata #11 
_rlnAccumMotionTotal #12 
_rlnAccumMotionEarly #13 
_rlnAccumMotionLate #14 
_rlnCtfImage #15 
_rlnDefocusU #16 
_rlnDefocusV #17 
_rlnCtfAstigmatism #18 
_rlnDefocusAngle #19 
_rlnCtfFigureOfMerit #20 
_rlnCtfMaxResolution #21 
_rlnTomoXTilt #22 
_rlnTomoYTilt #23 
_rlnTomoZRot #24 
_rlnTomoXShiftAngst #25 
_rlnTomoYShiftAngst #26 
_rlnCtfScalefactor #27 
frames/dc02t01_047[-30.00]-35188.mrc           10    -30.00000    84.190000    40.480000     -5.00000 MotionCorr/job002/frames/dc02t01_047[-30_00]-35188_PS.mrc MotionCorr/job002/frames/dc02t01_047[-30_00]-35188_EVN.mrc MotionCorr/job002/frames/dc02t01_047[-30_00]-35188_ODD.mrc MotionCorr/job002/frames/dc02t01_047[-30_00]-35188.mrc MotionCorr/job002/frames/dc02t01_047[-30_00]-35188.star     1.927214     0.000000     1.927214 CtfFind/job003/frames/dc02t01_047[-30_00]-35188_PS.ctf:mrc 51324.292969 51841.238281   516.945312   150.342041     0.008892    19.255651     0.000000    -27.49000     4.995921   -924.07471    27.852382     0.263089 
frames/dc02t01_044[-29.00]-35185.mrc           10    -29.00000    84.190000    37.840000     -5.00000 MotionCorr/job002/frames/dc02t01_044[-29_00]-35185_PS.mrc MotionCorr/job002/frames/dc02t01_044[-29_00]-35185_EVN.mrc MotionCorr/job002/frames/dc02t01_044[-29_00]-35185_ODD.mrc MotionCorr/job002/frames/dc02t01_044[-29_00]-35185.mrc MotionCorr/job002/frames/dc02t01_044[-29_00]-35185.star     2.463594     0.000000     2.463594 CtfFind/job003/frames/dc02t01_044[-29_00]-35185_PS.ctf:mrc 56652.507812 57169.988281   517.480469   120.413460     0.008785    17.715200     0.000000    -26.49000     4.996776   276.594517     1.025110     0.080769 
frames/dc02t01_043[-27.00]-35184.mrc           10    -27.00000    84.190000    36.960000     -5.00000 MotionCorr/job002/frames/dc02t01_043[-27_00]-35184_PS.mrc MotionCorr/job002/frames/dc02t01_043[-27_00]-35184_EVN.mrc MotionCorr/job002/frames/dc02t01_043[-27_00]-35184_ODD.mrc MotionCorr/job002/frames/dc02t01_043[-27_00]-35184.mrc MotionCorr/job002/frames/dc02t01_043[-27_00]-35184.star     2.603004     0.000000     2.603004 CtfFind/job003/frames/dc02t01_043[-27_00]-35184_PS.ctf:mrc 34413.757812 34776.945312   363.187500    54.818370     0.010964    25.000000     0.000000    -24.49000     4.998421   -488.47254    50.665674     0.207615 
frames/dc02t01_040[-25.00]-35181.mrc           10    -25.00000    84.190000    34.320000     -5.00000 MotionCorr/job002/frames/dc02t01_040[-25_00]-35181_PS.mrc MotionCorr/job002/frames/dc02t01_040[-25_00]-35181_EVN.mrc MotionCorr/job002/frames/dc02t01_040[-25_00]-35181_ODD.mrc MotionCorr/job002/frames/dc02t01_040[-25_00]-35181.mrc MotionCorr/job002/frames/dc02t01_040[-25_00]-35181.star     2.461406     0.000000     2.461406 CtfFind/job003/frames/dc02t01_040[-25_00]-35181_PS.ctf:mrc 47170.605469 47382.367188   211.761719   141.678905     0.010007    25.000000     0.000000    -22.49000     4.999933   -223.60370    42.301925     0.237239 
frames/dc02t01_039[-23.00]-35180.mrc           10    -23.00000    84.190000    33.440000     -5.00000 MotionCorr/job002/frames/dc02t01_039[-23_00]-35180_PS.mrc MotionCorr/job002/frames/dc02t01_039[-23_00]-35180_EVN.mrc MotionCorr/job002/frames/dc02t01_039[-23_00]-35180_ODD.mrc MotionCorr/job002/frames/dc02t01_039[-23_00]-35180.mrc MotionCorr/job002/frames/dc02t01_039[-23_00]-35180.star     3.075295     0.000000     3.075295 CtfFind/job003/frames/dc02t01_039[-23_00]-35180_PS.ctf:mrc 52614.386719 53060.707031   446.320312    82.955110     0.010867    18.453335     0.000000    -20.49000     5.001379   -757.83082    33.919633     0.203844 
frames/dc02t01_036[-21.00]-35177.mrc           10    -21.00000    84.190000    30.800000     -5.00000 MotionCorr/job002/frames/dc02t01_036[-21_00]-35177_PS.mrc MotionCorr/job002/frames/dc02t01_036[-21_00]-35177_EVN.mrc MotionCorr/job002/frames/dc02t01_036[-21_00]-35177_ODD.mrc MotionCorr/job002/frames/dc02t01_036[-21_00]-35177.mrc MotionCorr/job002/frames/dc02t01_036[-21_00]-35177.star     3.061879     0.000000     3.061879 CtfFind/job003/frames/dc02t01_036[-21_00]-35177_PS.ctf:mrc 41178.472656 42117.109375   938.636719   120.541351     0.008666    25.000000     0.000000    -18.49000     5.002890   222.809806     1.688958     0.264041 
frames/dc02t01_035[-19.00]-35176.mrc           10    -19.00000    84.190000    29.920000     -5.00000 MotionCorr/job002/frames/dc02t01_035[-19_00]-35176_PS.mrc MotionCorr/job002/frames/dc02t01_035[-19_00]-35176_EVN.mrc MotionCorr/job002/frames/dc02t01_035[-19_00]-35176_ODD.mrc MotionCorr/job002/frames/dc02t01_035[-19_00]-35176.mrc MotionCorr/job002/frames/dc02t01_035[-19_00]-35176.star     2.958678     0.000000     2.958678 CtfFind/job003/frames/dc02t01_035[-19_00]-35176_PS.ctf:mrc 36551.000000 37167.601562   616.601562   132.897644     0.004368    25.000000     0.000000    -16.49000     5.004204   -811.11859    61.212618     0.247762 
frames/dc02t01_032[-17.00]-35173.mrc           10    -17.01000    84.190000    27.280000     -5.00000 MotionCorr/job002/frames/dc02t01_032[-17_00]-35173_PS.mrc MotionCorr/job002/frames/dc02t01_032[-17_00]-35173_EVN.mrc MotionCorr/job002/frames/dc02t01_032[-17_00]-35173_ODD.mrc MotionCorr/job002/frames/dc02t01_032[-17_00]-35173.mrc MotionCorr/job002/frames/dc02t01_032[-17_00]-35173.star     2.052632     0.000000     2.052632 CtfFind/job003/frames/dc02t01_032[-17_00]-35173_PS.ctf:mrc 56289.621094 56536.097656   246.476562    74.410820     0.010972    16.252478     0.000000    -14.50000     5.005452   325.568764    17.772476     0.396572 
frames/dc02t01_031[-15.00]-35172.mrc           10    -15.00000    84.190000    26.400000     -5.00000 MotionCorr/job002/frames/dc02t01_031[-15_00]-35172_PS.mrc MotionCorr/job002/frames/dc02t01_031[-15_00]-35172_EVN.mrc MotionCorr/job002/frames/dc02t01_031[-15_00]-35172_ODD.mrc MotionCorr/job002/frames/dc02t01_031[-15_00]-35172.mrc MotionCorr/job002/frames/dc02t01_031[-15_00]-35172.star     5.161443     0.000000     5.161443 CtfFind/job003/frames/dc02t01_031[-15_00]-35172_PS.ctf:mrc 39705.929688 40196.031250   490.101562   107.937065     0.006493    25.000000     0.000000    -12.49000     5.006765   -669.01730    92.458837     0.185116 
frames/dc02t01_028[-13.00]-35169.mrc           10    -13.00000    84.190000    23.760000     -5.00000 MotionCorr/job002/frames/dc02t01_028[-13_00]-35169_PS.mrc MotionCorr/job002/frames/dc02t01_028[-13_00]-35169_EVN.mrc MotionCorr/job002/frames/dc02t01_028[-13_00]-35169_ODD.mrc MotionCorr/job002/frames/dc02t01_028[-13_00]-35169.mrc MotionCorr/job002/frames/dc02t01_028[-13_00]-35169.star     5.421254     0.000000     5.421254 CtfFind/job003/frames/dc02t01_028[-13_00]-35169_PS.ctf:mrc 52620.960938 53457.804688   836.843750    90.189973     0.009471    18.647579     0.000000    -10.49000     5.008013   212.573810    -12.52550     0.042810 
frames/dc02t01_027[-11.00]-35168.mrc           10    -11.00000    84.190000    22.880000     -5.00000 MotionCorr/job002/frames/dc02t01_027[-11_00]-35168_PS.mrc MotionCorr/job002/frames/dc02t01_027[-11_00]-35168_EVN.mrc MotionCorr/job002/frames/dc02t01_027[-11_00]-35168_ODD.mrc MotionCorr/job002/frames/dc02t01_027[-11_00]-35168.mrc MotionCorr/job002/frames/dc02t01_027[-11_00]-35168.star     3.616596     0.000000     3.616596 CtfFind/job003/frames/dc02t01_027[-11_00]-35168_PS.ctf:mrc 52350.585938 52523.304688   172.718750    59.429180     0.012107    18.263094     0.000000     -8.49000     5.009259   -209.73839    44.162542     0.010653 
frames/dc02t01_024[-9.00]-35165.mrc           10     -9.00000    84.190000    20.240000     -5.00000 MotionCorr/job002/frames/dc02t01_024[-9_00]-35165_PS.mrc MotionCorr/job002/frames/dc02t01_024[-9_00]-35165_EVN.mrc MotionCorr/job002/frames/dc02t01_024[-9_00]-35165_ODD.mrc MotionCorr/job002/frames/dc02t01_024[-9_00]-35165.mrc MotionCorr/job002/frames/dc02t01_024[-9_00]-35165.star     2.140205     0.000000     2.140205 CtfFind/job003/frames/dc02t01_024[-9_00]-35165_PS.ctf:mrc 39804.890625 40199.886719   394.996094    67.846450     0.007275    25.000000     0.000000     -6.49000     5.010440   -162.73833    19.710280     0.179117 
frames/dc02t01_023[-7.00]-35164.mrc           10     -7.01000    84.190000    19.360000     -5.00000 MotionCorr/job002/frames/dc02t01_023[-7_00]-35164_PS.mrc MotionCorr/job002/frames/dc02t01_023[-7_00]-35164_EVN.mrc MotionCorr/job002/frames/dc02t01_023[-7_00]-35164_ODD.mrc MotionCorr/job002/frames/dc02t01_023[-7_00]-35164.mrc MotionCorr/job002/frames/dc02t01_023[-7_00]-35164.star     3.221063     0.000000     3.221063 CtfFind/job003/frames/dc02t01_023[-7_00]-35164_PS.ctf:mrc 42087.289062 42191.046875   103.757812    75.667890     0.009530    25.000000     0.000000     -4.50000     5.011490   -179.92632    35.447348     0.179787 
frames/dc02t01_020[-5.00]-35161.mrc           10     -5.01000    84.190000    16.720000     -5.00000 MotionCorr/job002/frames/dc02t01_020[-5_00]-35161_PS.mrc MotionCorr/job002/frames/dc02t01_020[-5_00]-35161_EVN.mrc MotionCorr/job002/frames/dc02t01_020[-5_00]-35161_ODD.mrc MotionCorr/job002/frames/dc02t01_020[-5_00]-35161.mrc MotionCorr/job002/frames/dc02t01_020[-5_00]-35161.star     2.681758     0.000000     2.681758 CtfFind/job003/frames/dc02t01_020[-5_00]-35161_PS.ctf:mrc 41918.074219 42825.648438   907.574219   128.257145     0.008475    25.000000     0.000000     -2.50000     5.012670   -143.84370     8.896955     0.225810 
frames/dc02t01_019[-3.00]-35160.mrc           10     -3.01000    84.190000    15.840000     -5.00000 MotionCorr/job002/frames/dc02t01_019[-3_00]-35160_PS.mrc MotionCorr/job002/frames/dc02t01_019[-3_00]-35160_EVN.mrc MotionCorr/job002/frames/dc02t01_019[-3_00]-35160_ODD.mrc MotionCorr/job002/frames/dc02t01_019[-3_00]-35160.mrc MotionCorr/job002/frames/dc02t01_019[-3_00]-35160.star     2.850402     0.000000     2.850402 CtfFind/job003/frames/dc02t01_019[-3_00]-35160_PS.ctf:mrc 39807.785156 40075.105469   267.320312   178.171036     0.007162    25.000000     0.000000     -0.50000     5.013785   -142.18593    19.677786     0.156133 
frames/dc02t01_016[-1.00]-35157.mrc           10     -1.01000    84.190000    13.200000     -5.00000 MotionCorr/job002/frames/dc02t01_016[-1_00]-35157_PS.mrc MotionCorr/job002/frames/dc02t01_016[-1_00]-35157_EVN.mrc MotionCorr/job002/frames/dc02t01_016[-1_00]-35157_ODD.mrc MotionCorr/job002/frames/dc02t01_016[-1_00]-35157.mrc MotionCorr/job002/frames/dc02t01_016[-1_00]-35157.star     2.882573     0.000000     2.882573 CtfFind/job003/frames/dc02t01_016[-1_00]-35157_PS.ctf:mrc 50702.363281 52319.949219  1617.585938   -163.07418     0.006941    19.255651     0.000000     1.500000     5.014834   -120.28871     1.090677     -0.12368 
frames/dc02t01_015[1.00]-35156.mrc           10     0.990000    84.190000    12.320000     -5.00000 MotionCorr/job002/frames/dc02t01_015[1_00]-35156_PS.mrc MotionCorr/job002/frames/dc02t01_015[1_00]-35156_EVN.mrc MotionCorr/job002/frames/dc02t01_015[1_00]-35156_ODD.mrc MotionCorr/job002/frames/dc02t01_015[1_00]-35156.mrc MotionCorr/job002/frames/dc02t01_015[1_00]-35156.star     3.477285     0.000000     3.477285 CtfFind/job003/frames/dc02t01_015[1_00]-35156_PS.ctf:mrc 41652.562500 42288.062500   635.500000   158.747551     0.011446    25.000000     0.000000     3.500000     5.015883   -113.72008    17.799545     0.246987 
frames/dc02t01_012[3.00]-35153.mrc           10     2.990000    84.190000     9.680000     -5.00000 MotionCorr/job002/frames/dc02t01_012[3_00]-35153_PS.mrc MotionCorr/job002/frames/dc02t01_012[3_00]-35153_EVN.mrc MotionCorr/job002/frames/dc02t01_012[3_00]-35153_ODD.mrc MotionCorr/job002/frames/dc02t01_012[3_00]-35153.mrc MotionCorr/job002/frames/dc02t01_012[3_00]-35153.star     5.100605     0.000000     5.100605 CtfFind/job003/frames/dc02t01_012[3_00]-35153_PS.ctf:mrc 37459.804688 37488.781250    28.976562   121.704905     0.006384    25.000000     0.000000     5.500000     5.016931    -83.58676     -6.38858     0.107452 
frames/dc02t01_011[5.00]-35152.mrc           10     4.990000    84.190000     8.800000     -5.00000 MotionCorr/job002/frames/dc02t01_011[5_00]-35152_PS.mrc MotionCorr/job002/frames/dc02t01_011[5_00]-35152_EVN.mrc MotionCorr/job002/frames/dc02t01_011[5_00]-35152_ODD.mrc MotionCorr/job002/frames/dc02t01_011[5_00]-35152.mrc MotionCorr/job002/frames/dc02t01_011[5_00]-35152.star     3.623111     0.000000     3.623111 CtfFind/job003/frames/dc02t01_011[5_00]-35152_PS.ctf:mrc 46608.070312 47224.843750   616.773438   164.875244     0.011023    25.000000     0.000000     7.500000     5.018045    -72.20713    24.203519     0.128684 
frames/dc02t01_008[7.00]-35149.mrc           10     6.990000    84.190000     6.160000     -5.00000 MotionCorr/job002/frames/dc02t01_008[7_00]-35149_PS.mrc MotionCorr/job002/frames/dc02t01_008[7_00]-35149_EVN.mrc MotionCorr/job002/frames/dc02t01_008[7_00]-35149_ODD.mrc MotionCorr/job002/frames/dc02t01_008[7_00]-35149.mrc MotionCorr/job002/frames/dc02t01_008[7_00]-35149.star     4.573643     0.000000     4.573643 CtfFind/job003/frames/dc02t01_008[7_00]-35149_PS.ctf:mrc 49601.269531 51344.308594  1743.039062   -163.56834     0.003479    19.048601     0.000000     9.500000     5.019027    -52.86760     0.669630     0.309773 
frames/dc02t01_007[9.00]-35148.mrc           10     8.990000    84.190000     5.280000     -5.00000 MotionCorr/job002/frames/dc02t01_007[9_00]-35148_PS.mrc MotionCorr/job002/frames/dc02t01_007[9_00]-35148_EVN.mrc MotionCorr/job002/frames/dc02t01_007[9_00]-35148_ODD.mrc MotionCorr/job002/frames/dc02t01_007[9_00]-35148.mrc MotionCorr/job002/frames/dc02t01_007[9_00]-35148.star     4.878945     0.000000     4.878945 CtfFind/job003/frames/dc02t01_007[9_00]-35148_PS.ctf:mrc 36637.218750 37422.664062   785.445312   -154.02237     0.008156    25.000000     0.000000    11.500000     5.020075    -30.83953    25.504475     0.285315 
frames/dc02t01_004[11.00]-35145.mrc           10    10.990000    84.190000     2.640000     -5.00000 MotionCorr/job002/frames/dc02t01_004[11_00]-35145_PS.mrc MotionCorr/job002/frames/dc02t01_004[11_00]-35145_EVN.mrc MotionCorr/job002/frames/dc02t01_004[11_00]-35145_ODD.mrc MotionCorr/job002/frames/dc02t01_004[11_00]-35145.mrc MotionCorr/job002/frames/dc02t01_004[11_00]-35145.star     2.193930     0.000000     2.193930 CtfFind/job003/frames/dc02t01_004[11_00]-35145_PS.ctf:mrc 55181.765625 56234.597656  1052.832031   -179.73994     0.008679    14.886723     0.000000    13.500000     5.021188    -42.46716    -13.22902     0.269534 
frames/dc02t01_003[13.00]-35144.mrc           10    12.990000    84.190000     1.760000     -5.00000 MotionCorr/job002/frames/dc02t01_003[13_00]-35144_PS.mrc MotionCorr/job002/frames/dc02t01_003[13_00]-35144_EVN.mrc MotionCorr/job002/frames/dc02t01_003[13_00]-35144_ODD.mrc MotionCorr/job002/frames/dc02t01_003[13_00]-35144.mrc MotionCorr/job002/frames/dc02t01_003[13_00]-35144.star     2.531864     1.110108     1.421756 CtfFind/job003/frames/dc02t01_003[13_00]-35144_PS.ctf:mrc 42722.375000 43231.539062   509.164062   -144.50491     0.004201    10.801951     0.000000    15.500000     5.022235    -30.28043    45.334451     0.334765 
frames/dc02t01_001[15.00]-35142.mrc           10    14.990000    84.190000     0.000000     -5.00000 MotionCorr/job002/frames/dc02t01_001[15_00]-35142_PS.mrc MotionCorr/job002/frames/dc02t01_001[15_00]-35142_EVN.mrc MotionCorr/job002/frames/dc02t01_001[15_00]-35142_ODD.mrc MotionCorr/job002/frames/dc02t01_001[15_00]-35142.mrc MotionCorr/job002/frames/dc02t01_001[15_00]-35142.star     2.532214     1.397296     1.134918 CtfFind/job003/frames/dc02t01_001[15_00]-35142_PS.ctf:mrc 56705.003906 56967.761719   262.757812    62.783190     0.010075    16.104727     0.000000    17.500000     5.023282    -21.14574     9.364580     0.320006 
frames/dc02t01_002[17.00]-35143.mrc           10    16.990000    84.190000     0.880000     -5.00000 MotionCorr/job002/frames/dc02t01_002[17_00]-35143_PS.mrc MotionCorr/job002/frames/dc02t01_002[17_00]-35143_EVN.mrc MotionCorr/job002/frames/dc02t01_002[17_00]-35143_ODD.mrc MotionCorr/job002/frames/dc02t01_002[17_00]-35143.mrc MotionCorr/job002/frames/dc02t01_002[17_00]-35143.star     2.605527     0.858728     1.746800 CtfFind/job003/frames/dc02t01_002[17_00]-35143_PS.ctf:mrc 54908.839844 55027.085938   118.246094   118.704594     0.011803    12.475493     0.000000    19.500000     5.024329   -756.23832   489.679296     0.135074 
frames/dc02t01_005[19.00]-35146.mrc           10    18.990000    84.190000     3.520000     -5.00000 MotionCorr/job002/frames/dc02t01_005[19_00]-35146_PS.mrc MotionCorr/job002/frames/dc02t01_005[19_00]-35146_EVN.mrc MotionCorr/job002/frames/dc02t01_005[19_00]-35146_ODD.mrc MotionCorr/job002/frames/dc02t01_005[19_00]-35146.mrc MotionCorr/job002/frames/dc02t01_005[19_00]-35146.star     3.833954     0.000000     3.833954 CtfFind/job003/frames/dc02t01_005[19_00]-35146_PS.ctf:mrc 44892.273438 45972.179688  1079.906250   104.680899     0.007589    25.000000     0.000000    21.500000     5.025376   746.214683   -444.75329     0.371396 
frames/dc02t01_006[21.00]-35147.mrc           10    20.990000    84.190000     4.400000     -5.00000 MotionCorr/job002/frames/dc02t01_006[21_00]-35147_PS.mrc MotionCorr/job002/frames/dc02t01_006[21_00]-35147_EVN.mrc MotionCorr/job002/frames/dc02t01_006[21_00]-35147_ODD.mrc MotionCorr/job002/frames/dc02t01_006[21_00]-35147.mrc MotionCorr/job002/frames/dc02t01_006[21_00]-35147.star     7.011579     0.000000     7.011579 CtfFind/job003/frames/dc02t01_006[21_00]-35147_PS.ctf:mrc 55709.800781 56695.433594   985.632812   167.855919     0.005095    16.871618     0.000000    23.500000     5.026488   133.311280     -8.01249     -0.01091 
frames/dc02t01_009[23.00]-35150.mrc           10    22.990000    84.190000     7.040000     -5.00000 MotionCorr/job002/frames/dc02t01_009[23_00]-35150_PS.mrc MotionCorr/job002/frames/dc02t01_009[23_00]-35150_EVN.mrc MotionCorr/job002/frames/dc02t01_009[23_00]-35150_ODD.mrc MotionCorr/job002/frames/dc02t01_009[23_00]-35150.mrc MotionCorr/job002/frames/dc02t01_009[23_00]-35150.star     6.881852     0.000000     6.881852 CtfFind/job003/frames/dc02t01_009[23_00]-35150_PS.ctf:mrc 56067.003906 56511.214844   444.210938   172.165237     0.006603    13.627077     0.000000    25.500000     5.027599   -140.69769     -2.31441     0.127339 
frames/dc02t01_010[25.00]-35151.mrc           10    25.000000    84.190000     7.920000     -5.00000 MotionCorr/job002/frames/dc02t01_010[25_00]-35151_PS.mrc MotionCorr/job002/frames/dc02t01_010[25_00]-35151_EVN.mrc MotionCorr/job002/frames/dc02t01_010[25_00]-35151_ODD.mrc MotionCorr/job002/frames/dc02t01_010[25_00]-35151.mrc MotionCorr/job002/frames/dc02t01_010[25_00]-35151.star     7.100876     0.000000     7.100876 CtfFind/job003/frames/dc02t01_010[25_00]-35151_PS.ctf:mrc 43595.808594 43655.609375    59.800781   -154.50323     0.008688    25.000000     0.000000    27.510000     5.028776   -140.13040    32.674316     0.426312 
frames/dc02t01_013[27.00]-35154.mrc           10    27.000000    84.190000    10.560000     -5.00000 MotionCorr/job002/frames/dc02t01_013[27_00]-35154_PS.mrc MotionCorr/job002/frames/dc02t01_013[27_00]-35154_EVN.mrc MotionCorr/job002/frames/dc02t01_013[27_00]-35154_ODD.mrc MotionCorr/job002/frames/dc02t01_013[27_00]-35154.mrc MotionCorr/job002/frames/dc02t01_013[27_00]-35154.star     6.278770     0.000000     6.278770 CtfFind/job003/frames/dc02t01_013[27_00]-35154_PS.ctf:mrc 56142.308594 56872.882812   730.574219   174.384789     0.008117    14.762667     0.000000    29.510000     5.029887   192.120029    21.554652     0.256302 
frames/dc02t01_014[29.00]-35155.mrc           10    29.000000    84.190000    11.440000     -5.00000 MotionCorr/job002/frames/dc02t01_014[29_00]-35155_PS.mrc MotionCorr/job002/frames/dc02t01_014[29_00]-35155_EVN.mrc MotionCorr/job002/frames/dc02t01_014[29_00]-35155_ODD.mrc MotionCorr/job002/frames/dc02t01_014[29_00]-35155.mrc MotionCorr/job002/frames/dc02t01_014[29_00]-35155.star     6.259439     0.000000     6.259439 CtfFind/job003/frames/dc02t01_014[29_00]-35155_PS.ctf:mrc 51137.335938 51611.097656   473.761719    52.565660     0.010193    21.603903     0.000000    31.510000     5.031063   157.252301    -19.74514     0.148769 
frames/dc02t01_017[31.00]-35158.mrc           10    30.990000    84.190000    14.080000     -5.00000 MotionCorr/job002/frames/dc02t01_017[31_00]-35158_PS.mrc MotionCorr/job002/frames/dc02t01_017[31_00]-35158_EVN.mrc MotionCorr/job002/frames/dc02t01_017[31_00]-35158_ODD.mrc MotionCorr/job002/frames/dc02t01_017[31_00]-35158.mrc MotionCorr/job002/frames/dc02t01_017[31_00]-35158.star     7.678432     0.000000     7.678432 CtfFind/job003/frames/dc02t01_017[31_00]-35158_PS.ctf:mrc 40682.617188 41195.882812   513.265625   153.072487     0.012307    25.000000     0.000000    33.500000     5.032239    -57.05132    18.410207     0.200445 
frames/dc02t01_018[33.00]-35159.mrc           10    33.000000    84.190000    14.960000     -5.00000 MotionCorr/job002/frames/dc02t01_018[33_00]-35159_PS.mrc MotionCorr/job002/frames/dc02t01_018[33_00]-35159_EVN.mrc MotionCorr/job002/frames/dc02t01_018[33_00]-35159_ODD.mrc MotionCorr/job002/frames/dc02t01_018[33_00]-35159.mrc MotionCorr/job002/frames/dc02t01_018[33_00]-35159.star     5.176485     0.000000     5.176485 CtfFind/job003/frames/dc02t01_018[33_00]-35159_PS.ctf:mrc 53502.304688 54057.828125   555.523438   114.675888     0.005573    14.886723     0.000000    35.510000     5.033480   -179.37912    19.293763     0.051731 
frames/dc02t01_021[35.00]-35162.mrc           10    34.990000    84.190000    17.600000     -5.00000 MotionCorr/job002/frames/dc02t01_021[35_00]-35162_PS.mrc MotionCorr/job002/frames/dc02t01_021[35_00]-35162_EVN.mrc MotionCorr/job002/frames/dc02t01_021[35_00]-35162_ODD.mrc MotionCorr/job002/frames/dc02t01_021[35_00]-35162.mrc MotionCorr/job002/frames/dc02t01_021[35_00]-35162.star     6.725492     0.000000     6.725492 CtfFind/job003/frames/dc02t01_021[35_00]-35162_PS.ctf:mrc 47043.824219 48053.113281  1009.289062   156.896332     0.008675    25.000000     0.000000    37.500000     5.034786   311.591021    47.851767     0.122122 
frames/dc02t01_022[37.00]-35163.mrc           10    37.000000    84.190000    18.480000     -5.00000 MotionCorr/job002/frames/dc02t01_022[37_00]-35163_PS.mrc MotionCorr/job002/frames/dc02t01_022[37_00]-35163_EVN.mrc MotionCorr/job002/frames/dc02t01_022[37_00]-35163_ODD.mrc MotionCorr/job002/frames/dc02t01_022[37_00]-35163.mrc MotionCorr/job002/frames/dc02t01_022[37_00]-35163.star     7.178516     0.000000     7.178516 CtfFind/job003/frames/dc02t01_022[37_00]-35163_PS.ctf:mrc 36658.683594 36980.308594   321.625000   -178.96162     0.009424    25.000000     0.000000    39.510000     5.036091   171.791145    -23.02021     0.085182 
frames/dc02t01_025[39.00]-35166.mrc           10    38.990000    84.190000    21.120000     -5.00000 MotionCorr/job002/frames/dc02t01_025[39_00]-35166_PS.mrc MotionCorr/job002/frames/dc02t01_025[39_00]-35166_EVN.mrc MotionCorr/job002/frames/dc02t01_025[39_00]-35166_ODD.mrc MotionCorr/job002/frames/dc02t01_025[39_00]-35166.mrc MotionCorr/job002/frames/dc02t01_025[39_00]-35166.star     8.672031     0.000000     8.672031 CtfFind/job003/frames/dc02t01_025[39_00]-35166_PS.ctf:mrc 52827.632812 56041.820312  3214.187500   -148.96673     0.005486    17.367844     0.000000    41.500000     5.037462     -7.03308     -1.53009     0.109419 
frames/dc02t01_026[41.00]-35167.mrc           10    40.990000    84.190000    22.000000     -5.00000 MotionCorr/job002/frames/dc02t01_026[41_00]-35167_PS.mrc MotionCorr/job002/frames/dc02t01_026[41_00]-35167_EVN.mrc MotionCorr/job002/frames/dc02t01_026[41_00]-35167_ODD.mrc MotionCorr/job002/frames/dc02t01_026[41_00]-35167.mrc MotionCorr/job002/frames/dc02t01_026[41_00]-35167.star     8.871448     0.000000     8.871448 CtfFind/job003/frames/dc02t01_026[41_00]-35167_PS.ctf:mrc 43866.875000 44517.800781   650.925781    81.692210     0.009286    25.000000     0.000000    43.500000     5.038897   -186.58733    18.098548     0.088731 
frames/dc02t01_029[43.00]-35170.mrc           10    42.990000    84.190000    24.640000     -5.00000 MotionCorr/job002/frames/dc02t01_029[43_00]-35170_PS.mrc MotionCorr/job002/frames/dc02t01_029[43_00]-35170_EVN.mrc MotionCorr/job002/frames/dc02t01_029[43_00]-35170_ODD.mrc MotionCorr/job002/frames/dc02t01_029[43_00]-35170.mrc MotionCorr/job002/frames/dc02t01_029[43_00]-35170.star    14.370619     0.000000    14.370619 CtfFind/job003/frames/dc02t01_029[43_00]-35170_PS.ctf:mrc 48451.375000 49145.296875   693.921875   128.132759     0.008240    25.000000     0.000000    45.500000     5.040397   393.896056    68.624117     0.042362 
frames/dc02t01_030[45.00]-35171.mrc           10    44.990000    84.190000    25.520000     -5.00000 MotionCorr/job002/frames/dc02t01_030[45_00]-35171_PS.mrc MotionCorr/job002/frames/dc02t01_030[45_00]-35171_EVN.mrc MotionCorr/job002/frames/dc02t01_030[45_00]-35171_ODD.mrc MotionCorr/job002/frames/dc02t01_030[45_00]-35171.mrc MotionCorr/job002/frames/dc02t01_030[45_00]-35171.star     8.269506     0.000000     8.269506 CtfFind/job003/frames/dc02t01_030[45_00]-35171_PS.ctf:mrc 39001.085938 39590.324219   589.238281   125.270424     0.008264    25.000000     0.000000    47.500000     5.041962   -101.32221    -24.27360     0.201269 
frames/dc02t01_033[47.00]-35174.mrc           10    46.990000    84.190000    28.160000     -5.00000 MotionCorr/job002/frames/dc02t01_033[47_00]-35174_PS.mrc MotionCorr/job002/frames/dc02t01_033[47_00]-35174_EVN.mrc MotionCorr/job002/frames/dc02t01_033[47_00]-35174_ODD.mrc MotionCorr/job002/frames/dc02t01_033[47_00]-35174.mrc MotionCorr/job002/frames/dc02t01_033[47_00]-35174.star     9.515649     0.000000     9.515649 CtfFind/job003/frames/dc02t01_033[47_00]-35174_PS.ctf:mrc 39921.488281 41109.058594  1187.570312   171.535110     0.007202    25.000000     0.000000    49.500000     5.043592   431.603094    -34.09050     -0.05402 
frames/dc02t01_034[49.00]-35175.mrc           10    48.990000    84.190000    29.040000     -5.00000 MotionCorr/job002/frames/dc02t01_034[49_00]-35175_PS.mrc MotionCorr/job002/frames/dc02t01_034[49_00]-35175_EVN.mrc MotionCorr/job002/frames/dc02t01_034[49_00]-35175_ODD.mrc MotionCorr/job002/frames/dc02t01_034[49_00]-35175.mrc MotionCorr/job002/frames/dc02t01_034[49_00]-35175.star     6.136481     0.000000     6.136481 CtfFind/job003/frames/dc02t01_034[49_00]-35175_PS.ctf:mrc 40421.019531 41128.054688   707.035156    80.706900     0.010890    25.000000     0.000000    51.500000     5.045351   -172.85776    -70.08169     0.087059 
frames/dc02t01_037[51.00]-35178.mrc           10    50.990000    84.190000    31.680000     -5.00000 MotionCorr/job002/frames/dc02t01_037[51_00]-35178_PS.mrc MotionCorr/job002/frames/dc02t01_037[51_00]-35178_EVN.mrc MotionCorr/job002/frames/dc02t01_037[51_00]-35178_ODD.mrc MotionCorr/job002/frames/dc02t01_037[51_00]-35178.mrc MotionCorr/job002/frames/dc02t01_037[51_00]-35178.star     7.795689     0.000000     7.795689 CtfFind/job003/frames/dc02t01_037[51_00]-35178_PS.ctf:mrc 39795.941406 40243.285156   447.343750    74.357880     0.004822    25.000000     0.000000    53.500000     5.047175   617.393101     4.107423     0.034765 
frames/dc02t01_038[53.00]-35179.mrc           10    52.990000    84.190000    32.560000     -5.00000 MotionCorr/job002/frames/dc02t01_038[53_00]-35179_PS.mrc MotionCorr/job002/frames/dc02t01_038[53_00]-35179_EVN.mrc MotionCorr/job002/frames/dc02t01_038[53_00]-35179_ODD.mrc MotionCorr/job002/frames/dc02t01_038[53_00]-35179.mrc MotionCorr/job002/frames/dc02t01_038[53_00]-35179.star     4.387538     0.000000     4.387538 CtfFind/job003/frames/dc02t01_038[53_00]-35179_PS.ctf:mrc 45399.570312 45862.250000   462.679688   166.802589     0.009043    25.000000     0.000000    55.500000     5.049193    92.650913   -131.98093     0.054713 
frames/dc02t01_041[55.00]-35182.mrc           10    54.990000    84.190000    35.200000     -5.00000 MotionCorr/job002/frames/dc02t01_041[55_00]-35182_PS.mrc MotionCorr/job002/frames/dc02t01_041[55_00]-35182_EVN.mrc MotionCorr/job002/frames/dc02t01_041[55_00]-35182_ODD.mrc MotionCorr/job002/frames/dc02t01_041[55_00]-35182.mrc MotionCorr/job002/frames/dc02t01_041[55_00]-35182.star     6.034969     0.000000     6.034969 CtfFind/job003/frames/dc02t01_041[55_00]-35182_PS.ctf:mrc 43930.738281 45476.585938  1545.847656   137.129707     0.008765    25.000000     0.000000    57.500000     5.051276   535.346700   -145.33519     0.088903 
frames/dc02t01_042[57.00]-35183.mrc           10    56.990000    84.190000    36.080000     -5.00000 MotionCorr/job002/frames/dc02t01_042[57_00]-35183_PS.mrc MotionCorr/job002/frames/dc02t01_042[57_00]-35183_EVN.mrc MotionCorr/job002/frames/dc02t01_042[57_00]-35183_ODD.mrc MotionCorr/job002/frames/dc02t01_042[57_00]-35183.mrc MotionCorr/job002/frames/dc02t01_042[57_00]-35183.star     4.068460     0.000000     4.068460 CtfFind/job003/frames/dc02t01_042[57_00]-35183_PS.ctf:mrc 45567.550781 45848.734375   281.183594   -154.25996     0.012290    25.000000     0.000000    59.500000     5.053618   200.288422   -170.79257     0.039753 
