
data_global

loop_
_rlnTomoName #1
_rlnTomoTiltSeriesName #2
_rlnTomoFrameCount #3
_rlnTomoSizeX #4
_rlnTomoSizeY #5
_rlnTomoSizeZ #6
_rlnTomoHand #7
_rlnOpticsGroupName #8
_rlnTomoTiltSeriesPixelSize #9
_rlnVoltage #10
_rlnSphericalAberration #11
_rlnAmplitudeContrast #12
_rlnTomoImportFractionalDose #13
  015.tomostar  dummy_tiltseries.mrc  61  4096  4096  2200  -1.0   opticsGroup1  1.97100  300.000  2.700  0.070  2.238
  036.tomostar  dummy_tiltseries.mrc  58  4096  4096  2200  -1.0   opticsGroup2  1.97100  300.000  2.700  0.070  2.238
  021.tomostar  dummy_tiltseries.mrc  55  4096  4096  2200  -1.0   opticsGroup3  1.97100  300.000  2.700  0.070  2.238
  017.tomostar  dummy_tiltseries.mrc  60  4096  4096  2200  -1.0   opticsGroup4  1.97100  300.000  2.700  0.070  2.238
  031.tomostar  dummy_tiltseries.mrc  61  4096  4096  2200  -1.0   opticsGroup5  1.97100  300.000  2.700  0.070  2.238
  033.tomostar  dummy_tiltseries.mrc  61  4096  4096  2200  -1.0   opticsGroup6  1.97100  300.000  2.700  0.070  2.238
  022.tomostar  dummy_tiltseries.mrc  61  4096  4096  2200  -1.0   opticsGroup7  1.97100  300.000  2.700  0.070  2.238
  016.tomostar  dummy_tiltseries.mrc  61  4096  4096  2200  -1.0   opticsGroup8  1.97100  300.000  2.700  0.070  2.238
  032.tomostar  dummy_tiltseries.mrc  61  4096  4096  2200  -1.0   opticsGroup9  1.97100  300.000  2.700  0.070  2.238
  038.tomostar  dummy_tiltseries.mrc  43  4096  4096  2200  -1.0  opticsGroup10  1.97100  300.000  2.700  0.070  2.238
  029.tomostar  dummy_tiltseries.mrc  61  4096  4096  2200  -1.0  opticsGroup11  1.97100  300.000  2.700  0.070  2.238
  018.tomostar  dummy_tiltseries.mrc  57  4096  4096  2200  -1.0  opticsGroup12  1.97100  300.000  2.700  0.070  2.238
  019.tomostar  dummy_tiltseries.mrc  61  4096  4096  2200  -1.0  opticsGroup13  1.97100  300.000  2.700  0.070  2.238
  020.tomostar  dummy_tiltseries.mrc  61  4096  4096  2200  -1.0  opticsGroup14  1.97100  300.000  2.700  0.070  2.238




data_015.tomostar

loop_
_rlnTomoXTilt #1
_rlnTomoYTilt #2
_rlnTomoZRot #3
_rlnDefocusU #4
_rlnDefocusV #5
_rlnDefocusAngle #6
_rlnCtfScalefactor #7
_rlnMicrographPreExposure #8
    51.821392   -5.1066227    -85.9964    188.6     43.5  0.000  0.616  134.280
    49.818756   -4.9639096   -85.82062   3050.5   2905.4  0.000  0.643  132.042
    47.817017   -4.8151665   -85.64998    201.7     56.6  0.000  0.669  125.328
    45.816154    -4.660576  -85.484695  27669.0  27523.9  0.000  0.695  123.090
      43.8162    -4.500331   -85.32497    148.8      3.7  0.000  0.719  116.376
     41.81714    -4.334627   -85.17098  28769.4  28624.3  0.000  0.743  114.138
    39.818962     -4.16367   -85.02291  28862.3  28717.2  0.000  0.766  107.424
    37.821667     -3.98767   -84.88094  28915.3  28770.3  0.000  0.788  105.186
    35.825237   -3.8068411   -84.74523  28810.2  28665.1  0.000  0.809   98.472
     33.82966   -3.6214066   -84.61595  28977.2  28832.1  0.000  0.829   96.234
    31.834915    -3.431594   -84.49324  29106.4  28961.3  0.000  0.848   89.520
    29.840965   -3.2376332   -84.37725  28855.2  28710.1  0.000  0.866   87.282
    27.847788   -3.0397618  -84.268105  28814.3  28669.2  0.000  0.883   80.568
    25.855343   -2.8382204   -84.16594  28688.3  28543.2  0.000  0.899   78.330
    23.863605   -2.6332538   -84.07086  28889.8  28744.7  0.000  0.914   71.616
    21.872522   -2.4251108  -83.982994  28753.4  28608.4  0.000  0.927   69.378
    19.882057   -2.2140439   -83.90242  28732.6  28587.5  0.000  0.940   62.664
    17.892164    -2.000309   -83.82925  28706.9  28561.8  0.000  0.951   60.426
    15.902795   -1.7841641   -83.76355  28717.8  28572.8  0.000  0.961   53.712
    13.913892     -1.56587  -83.705414  28798.5  28653.4  0.000  0.970   51.474
   11.9254055    -1.345691   -83.65489  28720.6  28575.5  0.000  0.978   44.760
     9.937281   -1.1238921   -83.61204  28869.6  28724.5  0.000  0.985   42.522
    7.9494576  -0.90074056   -83.57691  28867.1  28722.0  0.000  0.990   35.808
    5.9618783   -0.6765053   -83.54955  28668.8  28523.7  0.000  0.995   33.570
     3.974482  -0.45145607   -83.52999  28831.6  28686.5  0.000  0.998   26.856
    1.9872102  -0.22586386   -83.51824  28902.1  28757.0  0.000  0.999   24.618
           -0            0   -83.51433  28753.7  28608.6  0.000  1.000   17.904
   -1.9872102   0.22586392   -83.51825  28699.5  28554.4  0.000  0.999   15.666
    -3.974482   0.45145616   -83.52999  28809.4  28664.3  0.000  0.998    8.952
   -5.9618783    0.6765055   -83.54956  28578.7  28433.7  0.000  0.995    6.714
   -7.9494576   0.90074086   -83.57691  28656.1  28511.0  0.000  0.990    0.000
    -9.937281    1.1238924  -83.612045  28680.4  28535.4  0.000  0.985    2.238
  -11.9254055    1.3456913   -83.65489  28620.8  28475.7  0.000  0.978    4.476
   -13.913892    1.5658705  -83.705414  28787.1  28642.0  0.000  0.970   11.190
   -15.902795    1.7841645   -83.76356  28739.5  28594.4  0.000  0.961   13.428
   -17.892164    2.0003095   -83.82925  28476.4  28331.3  0.000  0.951   20.142
   -19.882057    2.2140446   -83.90242  28590.4  28445.3  0.000  0.940   22.380
   -21.872522    2.4251115  -83.982994  28649.5  28504.4  0.000  0.927   29.094
   -23.863605    2.6332545   -84.07087  28565.5  28420.5  0.000  0.914   31.332
   -25.855343    2.8382208   -84.16594  28562.1  28417.1  0.000  0.899   38.046
   -27.847788    3.0397627   -84.26811  28765.1  28620.0  0.000  0.883   40.284
   -29.840965    3.2376342   -84.37725  28494.4  28349.3  0.000  0.866   46.998
   -31.834915    3.4315948   -84.49325  28442.2  28297.2  0.000  0.848   49.236
    -33.82966    3.6214075   -84.61596  28176.7  28031.7  0.000  0.829   55.950
   -35.825237     3.806842   -84.74524  28467.0  28321.9  0.000  0.809   58.188
   -37.821667     3.987671   -84.88094  28671.9  28526.8  0.000  0.788   64.902
   -39.818962    4.1636705   -85.02291  28272.4  28127.3  0.000  0.766   67.140
    -41.81714    4.3346286   -85.17098  28037.4  27892.3  0.000  0.743   73.854
     -43.8162    4.5003324  -85.324974  28392.0  28247.0  0.000  0.719   76.092
   -45.816154    4.6605773    -85.4847  28175.4  28030.4  0.000  0.695   82.806
   -47.817017     4.815168   -85.64999  28075.5  27930.4  0.000  0.669   85.044
   -49.818756     4.963911   -85.82062  27925.1  27780.0  0.000  0.643   91.758
   -51.821392     5.106624   -85.99641  28073.8  27928.7  0.000  0.616   93.996
   -53.824894    5.2431297   -86.17713  27799.0  27654.0  0.000  0.588  100.710
   -55.829254     5.373257   -86.36258  28022.1  27877.0  0.000  0.559  102.948
   -57.834446    5.4968452   -86.55253  28030.0  27884.9  0.000  0.530  109.662
    -59.84045     5.613741   -86.74674  28294.5  28149.4  0.000  0.500  111.900
   -61.847237     5.723796  -86.944984  28390.3  28245.3  0.000  0.469  118.614
   -63.854767     5.826875   -87.14702  27527.1  27382.0  0.000  0.438  120.852
    -65.86302    5.9228473   -87.35259  27526.2  27381.1  0.000  0.407  127.566
   -67.871925     6.011594   -87.56146  27692.9  27547.8  0.000  0.375  129.804




data_036.tomostar

loop_
_rlnTomoXTilt #1
_rlnTomoYTilt #2
_rlnTomoZRot #3
_rlnDefocusU #4
_rlnDefocusV #5
_rlnDefocusAngle #6
_rlnCtfScalefactor #7
_rlnMicrographPreExposure #8
   51.839756   -4.8380146   -86.20834  27977.1  27648.8  163.000  0.616  127.566
   49.837395    -4.702843    -86.0418  27534.8  27206.6  163.000  0.643  125.328
    47.83583    -4.561958  -85.880135  27592.7  27264.4  163.000  0.669  123.090
   45.835052     -4.41553  -85.723526  27396.9  27068.6  163.000  0.695  120.852
    43.83509    -4.263743   -85.57218  27619.7  27291.5  163.000  0.719  116.376
   41.835922   -4.1067815   -85.42626  27342.2  27014.0  163.000  0.743  114.138
    39.83756   -3.9448404   -85.28595  27304.7  26976.5  163.000  0.766  107.424
    37.83999   -3.7781186   -85.15141  27094.2  26765.9  163.000  0.788  105.186
    35.84318   -3.6068187  -85.022804  27307.7  26979.4  163.000  0.809   98.472
   33.847153   -3.4311528  -84.900276  27168.5  26840.3  163.000  0.829   96.234
   31.851862   -3.2513342   -84.78397  26981.1  26652.8  163.000  0.848   89.520
   29.857286   -3.0675828   -84.67403  26939.8  26611.6  163.000  0.866   87.282
   27.863407    -2.880123   -84.57058  26748.1  26419.9  163.000  0.883   80.568
   25.870186    -2.689182   -84.47373  26744.8  26416.5  163.000  0.899   78.330
   23.877596   -2.4949932  -84.383606  26687.8  26359.5  163.000  0.914   71.616
     21.8856   -2.2977917   -84.30031  26532.5  26204.3  163.000  0.927   69.378
   19.894152   -2.0978165   -84.22393  26657.4  26329.1  163.000  0.940   62.664
   17.903225   -1.8953106   -84.15456  26498.9  26170.7  163.000  0.951   60.426
   15.912762   -1.6905184   -84.09228  26550.1  26221.9  163.000  0.961   53.712
   13.922721   -1.4836879  -84.037155  26520.9  26192.6  163.000  0.970   51.474
   11.933054   -1.2750688   -83.98925  26477.4  26149.2  163.000  0.978   44.760
    9.943709   -1.0649128   -83.94863  26556.9  26228.6  163.000  0.985   42.522
   7.9546385   -0.8534738   -83.91533  26614.3  26286.0  163.000  0.990   35.808
   5.9657845  -0.64100647   -83.88939  26458.3  26130.0  163.000  0.995   33.570
   3.9770973    -0.427767   -83.87084  26541.1  26212.9  163.000  0.998   26.856
   1.9885209  -0.21401238  -83.859695  26613.2  26284.9  163.000  0.999   24.618
          -0            0   -83.85599  26546.2  26217.9  163.000  1.000   17.904
  -1.9885209   0.21401246    -83.8597  26566.8  26238.6  163.000  0.999   15.666
  -3.9770973   0.42776716   -83.87084  26464.6  26136.3  163.000  0.998    8.952
  -5.9657845   0.64100665   -83.88939  26518.0  26189.8  163.000  0.995    6.714
  -7.9546385   0.85347396   -83.91533  26530.3  26202.0  163.000  0.990    0.000
   -9.943709     1.064913   -83.94863  26535.4  26207.2  163.000  0.985    2.238
  -11.933054     1.275069   -83.98926  26623.0  26294.8  163.000  0.978    4.476
  -13.922721    1.4836882   -84.03716  26670.9  26342.7  163.000  0.970   11.190
  -15.912762    1.6905189   -84.09228  26690.7  26362.4  163.000  0.961   13.428
  -17.903225     1.895311  -84.154564  26766.3  26438.1  163.000  0.951   20.142
  -19.894152     2.097817   -84.22393  26677.8  26349.5  163.000  0.940   22.380
    -21.8856    2.2977922  -84.300316  26671.9  26343.7  163.000  0.927   29.094
  -23.877596     2.494994  -84.383606  26805.6  26477.3  163.000  0.914   31.332
  -25.870186     2.689183   -84.47374  26764.9  26436.7  163.000  0.899   38.046
  -27.863407    2.8801236   -84.57058  26712.4  26384.1  163.000  0.883   40.284
  -29.857286    3.0675838  -84.674034  26817.8  26489.5  163.000  0.866   46.998
  -31.851862    3.2513354   -84.78397  26976.1  26647.9  163.000  0.848   49.236
  -33.847153    3.4311538  -84.900276  25428.9  25100.7  163.000  0.829   55.950
   -35.84318    3.6068194  -85.022804  26805.6  26477.3  163.000  0.809   58.188
   -37.83999    3.7781193   -85.15142  27105.8  26777.5  163.000  0.788   64.902
   -39.83756    3.9448416   -85.28596  26890.5  26562.3  163.000  0.766   67.140
  -41.835922     4.106783   -85.42626  26576.5  26248.2  163.000  0.743   73.854
   -43.83509     4.263744   -85.57218  29118.6  28790.4  163.000  0.719   76.092
  -45.835052     4.415531   -85.72353  27007.1  26678.9  163.000  0.695   82.806
   -47.83583    4.5619593  -85.880135  27487.7  27159.5  163.000  0.669   85.044
  -49.837395    4.7028446   -86.04181  26784.8  26456.6  163.000  0.643   91.758
  -51.839756    4.8380156   -86.20835  26882.2  26553.9  163.000  0.616   93.996
  -53.842903     4.967304   -86.37956  26953.3  26625.1  163.000  0.588  100.710
  -55.846817     5.090549   -86.55524  29103.4  28775.1  163.000  0.559  102.948
  -57.851482    5.2075987   -86.73517  26618.5  26290.3  163.000  0.530  109.662
   -59.85688     5.318307  -86.919136  -2086.9  -2415.1  163.000  0.500  111.900
   -61.86296     5.422535   -87.10691  27175.2  26846.9  163.000  0.469  118.614




data_021.tomostar

loop_
_rlnTomoXTilt #1
_rlnTomoYTilt #2
_rlnTomoZRot #3
_rlnDefocusU #4
_rlnDefocusV #5
_rlnDefocusAngle #6
_rlnCtfScalefactor #7
_rlnMicrographPreExposure #8
     45.88867    -3.629799   -86.48784  -7807.5   -9411.0  64.000  0.695  120.852
    43.888695   -3.5050974   -86.36338  -8714.2  -10317.7  64.000  0.719  116.376
    41.889256    -3.376138   -86.24337  -6248.3   -7851.9  64.000  0.743  114.138
    39.890347   -3.2430773   -86.12796  -8607.3  -10210.9  64.000  0.766  107.424
     37.89198     -3.10608   -86.01728  -7599.3   -9202.9  64.000  0.788  105.186
     35.89413   -2.9653125   -85.91147  -3128.9   -4732.4  64.000  0.809   98.472
      33.8968   -2.8209476  -85.810646  -5459.7   -7063.3  64.000  0.829   96.234
    31.899977   -2.6731617  -85.714935  -6512.7   -8116.2  64.000  0.848   89.520
    29.903631    -2.522134   -85.62445  -6270.9   -7874.5  64.000  0.866   87.282
     27.90776   -2.3680499   -85.53929  -8002.1   -9605.7  64.000  0.883   80.568
    25.912333   -2.2110963   -85.45957  -8263.2   -9866.7  64.000  0.899   78.330
    23.917334   -2.0514643   -85.38537  -6528.0   -8131.5  64.000  0.914   71.616
    21.922733   -1.8893483   -85.31678  15069.7   13466.1  64.000  0.927   69.378
     19.92851   -1.7249446   -85.25388  47208.3   45604.8  64.000  0.940   62.664
    17.934633   -1.5584534  -85.196754  48314.7   46711.2  64.000  0.951   60.426
   15.9410715   -1.3900762   -85.14546  47143.7   45540.2  64.000  0.961   53.712
      13.9478   -1.2200172   -85.10006  48626.6   47023.0  64.000  0.970   51.474
    11.954776   -1.0484822    -85.0606  48773.8   47170.2  64.000  0.978   44.760
     9.961975   -0.8756793  -85.027145  48643.7   47040.1  64.000  0.985   42.522
     7.969356  -0.70181733    -84.9997  49266.8   47663.3  64.000  0.990   35.808
    5.9768863  -0.52710676   -84.97833  49616.3   48012.7  64.000  0.995   33.570
    3.9845273   -0.3517589   -84.96305  48894.2   47290.7  64.000  0.998   26.856
    1.9922451  -0.17598583   -84.95388  49463.9   47860.3  64.000  0.999   24.618
           -0            0   -84.95082  49851.0   48247.5  64.000  1.000   17.904
   -1.9922451   0.17598589   -84.95388  49490.7   47887.2  64.000  0.999   15.666
   -3.9845273   0.35175902   -84.96305  49761.6   48158.1  64.000  0.998    8.952
   -5.9768863    0.5271069   -84.97834  48136.5   46533.0  64.000  0.995    6.714
    -7.969356    0.7018175   -84.99971  52275.8   50672.2  64.000  0.990    0.000
    -9.961975   0.87567955  -85.027145  51728.7   50125.1  64.000  0.985    2.238
   -11.954776    1.0484825    -85.0606  48583.2   46979.6  64.000  0.978    4.476
     -13.9478    1.2200176   -85.10006  49954.1   48350.6  64.000  0.970   11.190
  -15.9410715    1.3900766   -85.14546  50049.7   48446.2  64.000  0.961   13.428
   -17.934633     1.558454  -85.196754  49897.3   48293.7  64.000  0.951   20.142
    -19.92851    1.7249453   -85.25389  50241.3   48637.7  64.000  0.940   22.380
   -21.922733    1.8893489   -85.31678  48185.8   46582.2  64.000  0.927   29.094
   -23.917334     2.051465   -85.38537  48433.8   46830.3  64.000  0.914   31.332
   -25.912333     2.211097   -85.45957  49909.0   48305.5  64.000  0.899   38.046
    -27.90776    2.3680508    -85.5393  50506.1   48902.5  64.000  0.883   40.284
   -29.903631     2.522135   -85.62446  51904.3   50300.7  64.000  0.866   46.998
   -31.899977    2.6731625   -85.71494  47765.2   46161.6  64.000  0.848   49.236
     -33.8968    2.8209484   -85.81065  48503.3   46899.8  64.000  0.829   55.950
    -35.89413    2.9653134  -85.911476   5358.7    3755.1  64.000  0.809   58.188
    -37.89198     3.106081   -86.01729  -2838.9   -4442.4  64.000  0.788   64.902
   -39.890347    3.2430785   -86.12796  -3068.8   -4672.3  64.000  0.766   67.140
   -41.889256    3.3761392   -86.24338   3707.9    2104.3  64.000  0.743   73.854
   -43.888695    3.5050988   -86.36339  -1392.2   -2995.7  64.000  0.719   76.092
    -45.88867       3.6298   -86.48784  -3309.3   -4912.9  64.000  0.695   82.806
   -47.889206    3.7500896    -86.6166  -4747.2   -6350.7  64.000  0.669   85.044
   -49.890266     3.865819   -86.74951  -3144.9   -4748.4  64.000  0.643   91.758
   -51.891872    3.9768472  -86.886406  -1578.9   -3182.5  64.000  0.616   93.996
      -53.894     4.083037   -87.02713   -875.8   -2479.3  64.000  0.588  100.710
    -55.89665     4.184257    -87.1715   2097.6     494.0  64.000  0.559  102.948
   -57.899803    4.2803826   -87.31935   1752.7     149.2  64.000  0.530  109.662
   -59.903446     4.371295    -87.4705    640.6    -962.9  64.000  0.500  111.900
   -61.907555     4.456881  -87.624756   2220.4     616.8  64.000  0.469  118.614




data_017.tomostar

loop_
_rlnTomoXTilt #1
_rlnTomoYTilt #2
_rlnTomoZRot #3
_rlnDefocusU #4
_rlnDefocusV #5
_rlnDefocusAngle #6
_rlnCtfScalefactor #7
_rlnMicrographPreExposure #8
   51.804943   -5.3354454  -85.815674  -1101.7  -1182.4  154.000  0.616  132.042
    49.80207   -5.1863027   -85.63201  33881.6  33801.0  154.000  0.643  129.804
    47.80018    -5.030862  -85.453735  34065.5  33984.8  154.000  0.669  125.328
   45.799236    -4.869313   -85.28106  -1489.3  -1570.0  154.000  0.695  123.090
   43.799294   -4.7018585   -85.11419  34147.8  34067.1  154.000  0.719  116.376
    41.80032   -4.5287037   -84.95333  33879.9  33799.3  154.000  0.743  114.138
    39.80232   -4.3500624   -84.79867  34227.6  34146.9  154.000  0.766  107.424
    37.80528    -4.166156   -84.65037  34126.8  34046.2  154.000  0.788  105.186
    35.80918    -3.977207   -84.50862  34279.0  34198.3  154.000  0.809   98.472
   33.814014   -3.7834504   -84.37359  33813.2  33732.5  154.000  0.829   96.234
   31.819754   -3.5851214   -84.24543  33914.8  33834.1  154.000  0.848   89.520
   29.826359   -3.3824625   -84.12429  33862.7  33782.1  154.000  0.866   87.282
    27.83381   -3.1757214    -84.0103  34160.1  34079.4  154.000  0.883   80.568
   25.842066   -2.9651492    -83.9036  33823.3  33742.6  154.000  0.899   78.330
   23.851086    -2.751002   -83.80432  34039.7  33959.0  154.000  0.914   71.616
   21.860825   -2.5335395  -83.712555  33922.8  33842.2  154.000  0.927   69.378
   19.871239    -2.313025  -83.628426  34072.4  33991.7  154.000  0.940   62.664
   17.882277   -2.0897262   -83.55202  33773.3  33692.6  154.000  0.951   60.426
   15.893882    -1.863912   -83.48342  33914.3  33833.7  154.000  0.961   53.712
   13.905996   -1.6358553   -83.42271  33817.9  33737.2  154.000  0.970   51.474
   11.918566   -1.4058313   -83.36996  33716.6  33635.9  154.000  0.978   44.760
    9.931531   -1.1741171  -83.325226  33859.8  33779.2  154.000  0.985   42.522
   7.9448237  -0.94099116   -83.28855  33901.4  33820.8  154.000  0.990   35.808
   5.9583826  -0.70673454   -83.25999  33911.4  33830.7  154.000  0.995   33.570
   3.9721415   -0.4716285  -83.239555  33989.8  33909.2  154.000  0.998   26.856
   1.9860379  -0.23595603  -83.227295  34028.5  33947.8  154.000  0.999   24.618
          -0            0  -83.223206  33839.1  33758.4  154.000  1.000   17.904
  -1.9860379    0.2359561  -83.227295  33862.2  33781.5  154.000  0.999   15.666
  -3.9721415    0.4716286   -83.23956  33753.1  33672.4  154.000  0.998    8.952
  -5.9583826   0.70673466   -83.25999  33793.2  33712.5  154.000  0.995    6.714
  -7.9448237    0.9409914   -83.28855  33872.7  33792.0  154.000  0.990    0.000
   -9.931531    1.1741172  -83.325226  33789.0  33708.3  154.000  0.985    2.238
  -11.918566    1.4058317   -83.36996  33888.0  33807.4  154.000  0.978    4.476
  -13.905996    1.6358557  -83.422714  33854.5  33773.9  154.000  0.970   11.190
  -15.893882    1.8639126   -83.48342  33646.6  33565.9  154.000  0.961   13.428
  -17.882277    2.0897267   -83.55202  33674.7  33594.0  154.000  0.951   20.142
  -19.871239    2.3130255  -83.628426  33494.3  33413.6  154.000  0.940   22.380
  -21.860825    2.5335402   -83.71256  33600.7  33520.0  154.000  0.927   29.094
  -23.851086    2.7510026   -83.80432  33608.0  33527.4  154.000  0.914   31.332
  -25.842066    2.9651499   -83.90361  33455.5  33374.9  154.000  0.899   38.046
   -27.83381    3.1757224   -84.01031  33235.2  33154.5  154.000  0.883   40.284
  -29.826359    3.3824635   -84.12429  33585.8  33505.1  154.000  0.866   46.998
  -31.819754     3.585122   -84.24543  33426.6  33345.9  154.000  0.848   49.236
  -33.814014     3.783451    -84.3736  33272.1  33191.4  154.000  0.829   55.950
   -35.80918     3.977208   -84.50863  33281.6  33200.9  154.000  0.809   58.188
   -37.80528    4.1661563   -84.65037  33414.5  33333.8  154.000  0.788   64.902
   -39.80232     4.350064   -84.79867  33603.0  33522.3  154.000  0.766   67.140
   -41.80032     4.528705   -84.95334  33114.9  33034.3  154.000  0.743   73.854
  -43.799294    4.7018595    -85.1142  33052.3  32971.6  154.000  0.719   76.092
  -45.799236     4.869314   -85.28107  33064.9  32984.3  154.000  0.695   82.806
   -47.80018    5.0308633   -85.45374  33021.8  32941.1  154.000  0.669   85.044
   -49.80207     5.186304   -85.63202  32785.5  32704.8  154.000  0.643   91.758
  -51.804943     5.335447   -85.81568  32907.2  32826.5  154.000  0.616   93.996
   -53.80876     5.478105   -86.00451  32696.3  32615.7  154.000  0.588  100.710
  -55.813526    5.6141005   -86.19828  32606.6  32525.9  154.000  0.559  102.948
  -57.819195    5.7432647   -86.39676  32470.4  32389.7  154.000  0.530  109.662
  -59.825752    5.8654356   -86.59971  32787.4  32706.7  154.000  0.500  111.900
  -61.833153      5.98046   -86.80688  -1715.3  -1796.0  154.000  0.469  118.614
  -63.841377    6.0881953   -87.01801    103.6     22.9  154.000  0.438  120.852
   -65.85038     6.188505   -87.23286  33314.0  33233.3  154.000  0.407  127.566




data_031.tomostar

loop_
_rlnTomoXTilt #1
_rlnTomoYTilt #2
_rlnTomoZRot #3
_rlnDefocusU #4
_rlnDefocusV #5
_rlnDefocusAngle #6
_rlnCtfScalefactor #7
_rlnMicrographPreExposure #8
   51.827618    -5.017132   -86.06704  -1743.4  -2138.8  166.000  0.616  134.280
    49.82508    -4.876932   -85.89434  45230.6  44835.2  166.000  0.643  132.042
   47.823402    -4.730808  -85.726685  45324.6  44929.1  166.000  0.669  125.328
   45.822567   -4.5789366   -85.56429  45605.0  45209.6  166.000  0.695  123.090
    43.82261     -4.42151   -85.40736  44358.2  43962.8  166.000  0.719  116.376
   41.823513   -4.2587204   -85.25606  44299.2  43903.8  166.000  0.743  114.138
    39.82527   -4.0907664   -85.11057  44452.6  44057.2  166.000  0.766  107.424
   37.827885   -3.9178586   -84.97107  44179.9  43784.4  166.000  0.788  105.186
    35.83133   -3.7402046   -84.83773  44212.1  43816.7  166.000  0.809   98.472
   33.835598   -3.5580254    -84.7107  44103.5  43708.1  166.000  0.829   96.234
   31.840666   -3.3715425  -84.590126  44262.1  43866.7  166.000  0.848   89.520
     29.8465    -3.180983   -84.47614  44190.7  43795.3  166.000  0.866   87.282
   27.853088   -2.9865808    -84.3689  43892.9  43497.4  166.000  0.883   80.568
   25.860378   -2.7885706    -84.2685  43969.6  43574.2  166.000  0.899   78.330
   23.868351    -2.587195   -84.17508  44115.3  43719.8  166.000  0.914   71.616
    21.87696    -2.382697   -84.08872  43780.8  43385.4  166.000  0.927   69.378
   19.886164   -2.1753252   -84.00955  44119.4  43723.9  166.000  0.940   62.664
   17.895922   -1.9653316  -83.937645  44101.7  43706.2  166.000  0.951   60.426
   15.906177   -1.7529683  -83.873085  44142.5  43747.1  166.000  0.961   53.712
   13.916889   -1.5384933   -83.81594  43813.4  43418.0  166.000  0.970   51.474
   11.928001   -1.3221653    -83.7663  43932.8  43537.4  166.000  0.978   44.760
    9.939463   -1.1042448   -83.72419  43965.6  43570.2  166.000  0.985   42.522
    7.951215    -0.884995  -83.689674  44045.8  43650.4  166.000  0.990   35.808
    5.963203   -0.6646799   -83.66278  43774.0  43378.5  166.000  0.995   33.570
   3.9753692  -0.44356474  -83.643555  44029.8  43634.4  166.000  0.998   26.856
   1.9876547   -0.2219159   -83.63201  43997.6  43602.2  166.000  0.999   24.618
          -0            0   -83.62817  43979.8  43584.4  166.000  1.000   17.904
  -1.9876547   0.22191596   -83.63202  43718.7  43323.3  166.000  0.999   15.666
  -3.9753692   0.44356483   -83.64356  43755.3  43359.8  166.000  0.998    8.952
   -5.963203   0.66468006   -83.66279  43525.9  43130.5  166.000  0.995    6.714
   -7.951215    0.8849952  -83.689674  43516.7  43121.2  166.000  0.990    0.000
   -9.939463    1.1042452    -83.7242  43589.0  43193.6  166.000  0.985    2.238
  -11.928001    1.3221655  -83.766304  43444.7  43049.3  166.000  0.978    4.476
  -13.916889    1.5384938   -83.81595  43538.8  43143.4  166.000  0.970   11.190
  -15.906177    1.7529687  -83.873085  43536.8  43141.4  166.000  0.961   13.428
  -17.895922    1.9653322  -83.937645  43502.3  43106.9  166.000  0.951   20.142
  -19.886164    2.1753259   -84.00955  43370.0  42974.6  166.000  0.940   22.380
   -21.87696    2.3826976   -84.08873  43421.0  43025.5  166.000  0.927   29.094
  -23.868351    2.5871954   -84.17508  43338.0  42942.6  166.000  0.914   31.332
  -25.860378    2.7885714   -84.26851  43500.6  43105.1  166.000  0.899   38.046
  -27.853088    2.9865813  -84.368904  43363.2  42967.7  166.000  0.883   40.284
    -29.8465     3.180984   -84.47615  43351.6  42956.2  166.000  0.866   46.998
  -31.840666    3.3715436  -84.590126  43247.1  42851.7  166.000  0.848   49.236
  -33.835598    3.5580263   -84.71071  43125.3  42729.8  166.000  0.829   55.950
   -35.83133    3.7402058   -84.83773  43196.2  42800.7  166.000  0.809   58.188
  -37.827885    3.9178596   -84.97108  43293.8  42898.4  166.000  0.788   64.902
   -39.82527     4.090768   -85.11057  43221.4  42826.0  166.000  0.766   67.140
  -41.823513    4.2587214   -85.25606  42944.8  42549.3  166.000  0.743   73.854
   -43.82261    4.4215117   -85.40736  43195.7  42800.3  166.000  0.719   76.092
  -45.822567     4.578938   -85.56429  43438.3  43042.9  166.000  0.695   82.806
  -47.823402     4.730809   -85.72669  43138.9  42743.5  166.000  0.669   85.044
   -49.82508     4.876933   -85.89434  43072.2  42676.8  166.000  0.643   91.758
  -51.827618     5.017133   -86.06705  43139.3  42743.8  166.000  0.616   93.996
  -53.831005     5.151233  -86.244606  43180.2  42784.7  166.000  0.588  100.710
  -55.835217    5.2790675   -86.42679  43144.2  42748.8  166.000  0.559  102.948
  -57.840233    5.4004765    -86.6134  42462.9  42067.4  166.000  0.530  109.662
  -59.846024      5.51531    -86.8042  42856.0  42460.6  166.000  0.500  111.900
   -61.85257    5.6234226  -86.998955    286.2   -109.2  166.000  0.469  118.614
  -63.859848     5.724682   -87.19743  42496.3  42100.9  166.000  0.438  120.852
  -65.867805    5.8189597   -87.39939  -2261.8  -2657.2  166.000  0.407  127.566
   -67.87641     5.906138  -87.604576    -54.9   -450.4  166.000  0.375  129.804




data_033.tomostar

loop_
_rlnTomoXTilt #1
_rlnTomoYTilt #2
_rlnTomoZRot #3
_rlnDefocusU #4
_rlnDefocusV #5
_rlnDefocusAngle #6
_rlnCtfScalefactor #7
_rlnMicrographPreExposure #8
   51.851757     -4.65406   -86.35336  -2281.2  -2339.1  170.000  0.616  134.280
   49.849567   -4.5240507   -86.19315  -3022.6  -3080.4  170.000  0.643  132.042
   47.848118    -4.388543   -86.03763  49406.7  49348.8  170.000  0.669  125.328
   45.847397   -4.2477026   -85.88697  48907.5  48849.6  170.000  0.695  123.090
    43.84743   -4.1017056   -85.74136  -1631.7  -1689.6  170.000  0.719  116.376
     41.8482   -3.9507294  -85.600975  -3408.1  -3466.0  170.000  0.743  114.138
    39.84971   -3.7949605   -85.46597  48667.2  48609.3  170.000  0.766  107.424
    37.85195   -3.6345901   -85.33653  48303.7  48245.8  170.000  0.788  105.186
    35.85491    -3.469815   -85.21278  48344.7  48286.9  170.000  0.809   98.472
   33.858578   -3.3008368  -85.094894  48104.2  48046.3  170.000  0.829   96.234
   31.862934   -3.1278622   -84.98298  48586.0  48528.2  170.000  0.848   89.520
   29.867954   -2.9511018   -84.87718  49078.9  49021.0  170.000  0.866   87.282
   27.873617   -2.7707717   -84.77763  48813.3  48755.4  170.000  0.883   80.568
   25.879887    -2.587091   -84.68444  48625.3  48567.4  170.000  0.899   78.330
   23.886744   -2.4002833   -84.59771  48797.6  48739.7  170.000  0.914   71.616
   21.894144   -2.2105753   -84.51755  48470.4  48412.5  170.000  0.927   69.378
    19.90206   -2.0181973   -84.44404  48658.5  48600.6  170.000  0.940   62.664
   17.910452   -1.8233827   -84.37727  48584.5  48526.6  170.000  0.951   60.426
   15.919276    -1.626367  -84.317345  48802.0  48744.1  170.000  0.961   53.712
   13.928491   -1.4273887   -84.26428  48715.6  48657.8  170.000  0.970   51.474
   11.938051   -1.2266884  -84.218185  48651.1  48593.2  170.000  0.978   44.760
    9.947914   -1.0245087  -84.179085  48914.2  48856.4  170.000  0.985   42.522
   7.9580235    -0.821093   -84.14704  48898.9  48841.0  170.000  0.990   35.808
    5.968339   -0.6166875   -84.12207  48950.7  48892.8  170.000  0.995   33.570
    3.978807   -0.4115384   -84.10421  48920.4  48862.5  170.000  0.998   26.856
   1.9893776  -0.20589328    -84.0935  48779.6  48721.7  170.000  0.999   24.618
          -0            0   -84.08993  48883.3  48825.5  170.000  1.000   17.904
  -1.9893776   0.20589335    -84.0935  48941.0  48883.1  170.000  0.999   15.666
   -3.978807    0.4115385   -84.10422  48886.9  48829.0  170.000  0.998    8.952
   -5.968339    0.6166876   -84.12207  48852.2  48794.3  170.000  0.995    6.714
  -7.9580235    0.8210932   -84.14704  48850.3  48792.4  170.000  0.990    0.000
   -9.947914     1.024509   -84.17909  48749.7  48691.8  170.000  0.985    2.238
  -11.938051    1.2266887  -84.218185  48741.5  48683.6  170.000  0.978    4.476
  -13.928491     1.427389   -84.26429  48858.9  48801.1  170.000  0.970   11.190
  -15.919276    1.6263674  -84.317345  48884.8  48827.0  170.000  0.961   13.428
  -17.910452    1.8233833   -84.37728  48790.1  48732.2  170.000  0.951   20.142
   -19.90206    2.0181978   -84.44404  48677.1  48619.2  170.000  0.940   22.380
