  -54.01
  -50.01
  -48.01
  -46.01
  -44.01
  -42.01
  -40.01
  -38.01
  -36.00
  -34.01
  -32.00
  -30.00
  -28.00
  -26.00
  -24.01
  -22.01
  -20.00
  -18.00
  -16.01
  -14.01
  -12.01
  -10.01
   -8.01
   -6.01
   -4.01
   -2.01
   -0.01
    1.99
    3.99
    5.99
    7.98
    9.99
   11.99
   13.99
   15.99
   17.99
   19.99
   21.99
   23.99
   25.99
   27.99
   29.99
   31.99
   33.99
   35.98
   37.98
   39.98
   41.98
   43.99
   45.98
   47.99
   49.99
   51.99
   53.98
   55.99
   57.98
   59.99
   61.98
   63.99
   69.97

