PixelSpacing = 1.971
Voltage = 300
Version = SerialEM Version 4.0.20 64-bit,  built Feb 17 2023  20:15:15
ImageFile = TS_017.mrc
ImageSize = 4096 4096
DataMode = 1

[T = SerialEM: Titan Krios G4 D3946 at MPI BP                06-Jun-23  23:19:47    ]

[T =     Tilt axis angle = 82.9, binning = 1  spot = 5  camera = 1 dosym = 8.0]

[ZValue = 0]
MinMaxMean = 0 1948 630.934
TiltAngle = -52.0064
StagePosition = 137.175 367.199
StageZ = 17.7518
Magnification = 64000
Intensity = 0.186771
ExposureDose = 2.23843
DoseRate = 4.31403
PixelSpacing = 1.971
SpotSize = 5
Defocus = 2.25002
ImageShift = -0.0733564 0.646703
RotationAngle = 172.9
ExposureTime = 0.759969
Binning = 1
CameraIndex = 1
DividedBy2 = 0
OperatingMode = 1
MagIndex = 28
LowDoseConSet = 4
CountsPerElectron = 221.663
TargetDefocus = -3
PriorRecordDose = 134.379
SubFramePath = 018_01.mrc
NumSubFrames = 10
FrameDosesAndNumber = 0.023687 3  0.035531 7
DateTime = 06-Jun-23  23:19:46
NavigatorLabel = 114
FilterSlitAndLoss = 10 0
UncroppedSize = -4096 -4096

[ZValue = 1]
MinMaxMean = 0 1956 661.271
TiltAngle = -50.0066
StagePosition = 137.182 367.162
StageZ = 17.7518
Magnification = 64000
Intensity = 0.186771
ExposureDose = 2.23843
DoseRate = 4.56057
PixelSpacing = 1.971
SpotSize = 5
Defocus = 2.17722
ImageShift = 9.37679e-005 0.5514
RotationAngle = 172.9
ExposureTime = 0.759969
Binning = 1
CameraIndex = 1
DividedBy2 = 0
OperatingMode = 1
MagIndex = 28
LowDoseConSet = 4
CountsPerElectron = 221.663
TargetDefocus = -3
PriorRecordDose = 132.14
SubFramePath = 018_02.mrc
NumSubFrames = 10
FrameDosesAndNumber = 0.023687 3  0.035531 7
DateTime = 06-Jun-23  23:19:21
NavigatorLabel = 114
FilterSlitAndLoss = 10 0
UncroppedSize = -4096 -4096

[ZValue = 2]
MinMaxMean = 20 1923 687.357
TiltAngle = -48.0064
StagePosition = 137.173 367.157
StageZ = 17.7498
Magnification = 64000
Intensity = 0.186771
ExposureDose = 2.23843
DoseRate = 4.77878
PixelSpacing = 1.971
SpotSize = 5
Defocus = 2.23498
ImageShift = -0.0280277 0.518435
RotationAngle = 172.9
ExposureTime = 0.759969
Binning = 1
CameraIndex = 1
DividedBy2 = 0
OperatingMode = 1
MagIndex = 28
LowDoseConSet = 4
CountsPerElectron = 221.663
TargetDefocus = -3
PriorRecordDose = 125.425
SubFramePath = 018_03.mrc
NumSubFrames = 10
FrameDosesAndNumber = 0.023687 3  0.035531 7
DateTime = 06-Jun-23  23:17:55
NavigatorLabel = 114
FilterSlitAndLoss = 10 0
UncroppedSize = -4096 -4096

[ZValue = 3]
MinMaxMean = 39 1958 713.447
TiltAngle = -46.0066
StagePosition = 137.181 367.158
StageZ = 17.7498
Magnification = 64000
Intensity = 0.186771
ExposureDose = 2.23843
DoseRate = 4.98559
PixelSpacing = 1.971
SpotSize = 5
Defocus = 2.20872
ImageShift = 0.0170416 0.481505
RotationAngle = 172.9
ExposureTime = 0.759969
Binning = 1
CameraIndex = 1
DividedBy2 = 0
OperatingMode = 1
MagIndex = 28
LowDoseConSet = 4
CountsPerElectron = 221.663
TargetDefocus = -3
PriorRecordDose = 123.186
SubFramePath = 018_04.mrc
NumSubFrames = 10
FrameDosesAndNumber = 0.023687 3  0.035531 7
DateTime = 06-Jun-23  23:17:29
NavigatorLabel = 114
FilterSlitAndLoss = 10 0
UncroppedSize = -4096 -4096

[ZValue = 4]
MinMaxMean = 15 2072 735.543
TiltAngle = -44.0058
StagePosition = 137.174 367.194
StageZ = 17.7477
Magnification = 64000
Intensity = 0.186771
ExposureDose = 2.23843
DoseRate = 5.17127
PixelSpacing = 1.971
SpotSize = 5
Defocus = 2.29075
ImageShift = -0.0291098 0.475697
RotationAngle = 172.9
ExposureTime = 0.759969
Binning = 1
CameraIndex = 1
DividedBy2 = 0
OperatingMode = 1
MagIndex = 28
LowDoseConSet = 4
CountsPerElectron = 221.663
TargetDefocus = -3
PriorRecordDose = 116.471
SubFramePath = 018_05.mrc
NumSubFrames = 10
FrameDosesAndNumber = 0.023687 3  0.035531 7
DateTime = 06-Jun-23  23:16:07
NavigatorLabel = 114
FilterSlitAndLoss = 10 0
UncroppedSize = -4096 -4096

[ZValue = 5]
MinMaxMean = 58 2033 758.36
TiltAngle = -42.0051
StagePosition = 137.183 367.203
StageZ = 17.7477
Magnification = 64000
Intensity = 0.186771
ExposureDose = 2.23843
DoseRate = 5.36921
PixelSpacing = 1.971
SpotSize = 5
Defocus = 2.24831
ImageShift = 0.0290279 0.43285
RotationAngle = 172.9
ExposureTime = 0.759969
Binning = 1
CameraIndex = 1
DividedBy2 = 0
OperatingMode = 1
MagIndex = 28
LowDoseConSet = 4
CountsPerElectron = 221.663
TargetDefocus = -3
PriorRecordDose = 114.233
SubFramePath = 018_06.mrc
NumSubFrames = 10
FrameDosesAndNumber = 0.023687 3  0.035531 7
DateTime = 06-Jun-23  23:15:42
NavigatorLabel = 114
FilterSlitAndLoss = 10 0
UncroppedSize = -4096 -4096

[ZValue = 6]
MinMaxMean = 58 1964 776.454
TiltAngle = -40.0053
StagePosition = 137.176 367.154
StageZ = 17.745
Magnification = 64000
Intensity = 0.186771
ExposureDose = 2.23843
DoseRate = 5.51451
PixelSpacing = 1.971
SpotSize = 5
Defocus = 2.27833
ImageShift = 0.00480656 0.385567
RotationAngle = 172.9
ExposureTime = 0.759969
Binning = 1
CameraIndex = 1
DividedBy2 = 0
OperatingMode = 1
MagIndex = 28
LowDoseConSet = 4
CountsPerElectron = 221.663
TargetDefocus = -3
PriorRecordDose = 107.517
SubFramePath = 018_07.mrc
NumSubFrames = 10
FrameDosesAndNumber = 0.023687 3  0.035531 7
DateTime = 06-Jun-23  23:14:21
NavigatorLabel = 114
FilterSlitAndLoss = 10 0
UncroppedSize = -4096 -4096

[ZValue = 7]
MinMaxMean = 69 2089 795.191
TiltAngle = -38.0066
StagePosition = 137.183 367.157
StageZ = 17.745
Magnification = 64000
Intensity = 0.186771
ExposureDose = 2.23843
DoseRate = 5.66147
PixelSpacing = 1.971
SpotSize = 5
Defocus = 2.27346
ImageShift = 0.0551521 0.340994
RotationAngle = 172.9
ExposureTime = 0.759969
Binning = 1
CameraIndex = 1
DividedBy2 = 0
OperatingMode = 1
MagIndex = 28
LowDoseConSet = 4
CountsPerElectron = 221.663
TargetDefocus = -3
PriorRecordDose = 105.279
SubFramePath = 018_08.mrc
NumSubFrames = 10
FrameDosesAndNumber = 0.023687 3  0.035531 7
DateTime = 06-Jun-23  23:13:55
NavigatorLabel = 114
FilterSlitAndLoss = 10 0
UncroppedSize = -4096 -4096

[ZValue = 8]
MinMaxMean = 42 2032 810.522
TiltAngle = -36.0048
StagePosition = 137.17 367.199
StageZ = 17.7416
Magnification = 64000
Intensity = 0.186771
ExposureDose = 2.23843
DoseRate = 5.81901
PixelSpacing = 1.971
SpotSize = 5
Defocus = 2.37024
ImageShift = 7.74586e-005 0.366403
RotationAngle = 172.9
ExposureTime = 0.759969
Binning = 1
CameraIndex = 1
DividedBy2 = 0
OperatingMode = 1
MagIndex = 28
LowDoseConSet = 4
CountsPerElectron = 221.663
TargetDefocus = -3
PriorRecordDose = 98.5637
SubFramePath = 018_09.mrc
NumSubFrames = 10
FrameDosesAndNumber = 0.023687 3  0.035531 7
DateTime = 06-Jun-23  23:12:31
NavigatorLabel = 114
FilterSlitAndLoss = 10 0
UncroppedSize = -4096 -4096

[ZValue = 9]
MinMaxMean = 63 2129 826.728
TiltAngle = -34.0061
StagePosition = 137.181 367.208
StageZ = 17.741
Magnification = 64000
Intensity = 0.186771
ExposureDose = 2.23843
DoseRate = 5.9567
PixelSpacing = 1.971
SpotSize = 5
Defocus = 2.33452
ImageShift = 0.0366893 0.353196
RotationAngle = 172.9
ExposureTime = 0.759969
Binning = 1
CameraIndex = 1
DividedBy2 = 0
OperatingMode = 1
MagIndex = 28
LowDoseConSet = 4
CountsPerElectron = 221.663
TargetDefocus = -3
PriorRecordDose = 96.3253
SubFramePath = 018_10.mrc
NumSubFrames = 10
FrameDosesAndNumber = 0.023687 3  0.035531 7
DateTime = 06-Jun-23  23:12:05
NavigatorLabel = 114
FilterSlitAndLoss = 10 0
UncroppedSize = -4096 -4096

[ZValue = 10]
MinMaxMean = 42 2135 838.547
TiltAngle = -32.0043
StagePosition = 137.175 367.195
StageZ = 17.7376
Magnification = 64000
Intensity = 0.186771
ExposureDose = 2.23843
DoseRate = 6.06346
PixelSpacing = 1.971
SpotSize = 5
Defocus = 2.38382
ImageShift = 0.00241615 0.337046
RotationAngle = 172.9
ExposureTime = 0.759969
Binning = 1
CameraIndex = 1
DividedBy2 = 0
OperatingMode = 1
MagIndex = 28
LowDoseConSet = 4
CountsPerElectron = 221.663
TargetDefocus = -3
PriorRecordDose = 89.61
SubFramePath = 018_11.mrc
NumSubFrames = 10
FrameDosesAndNumber = 0.023687 3  0.035531 7
DateTime = 06-Jun-23  23:10:46
NavigatorLabel = 114
FilterSlitAndLoss = 10 0
UncroppedSize = -4096 -4096

[ZValue = 11]
MinMaxMean = 85 2112 852.093
TiltAngle = -30.0041
StagePosition = 137.18 367.199
StageZ = 17.7376
Magnification = 64000
Intensity = 0.186771
ExposureDose = 2.23843
DoseRate = 6.19338
PixelSpacing = 1.971
SpotSize = 5
Defocus = 2.36325
ImageShift = 0.0397972 0.313728
RotationAngle = 172.9
ExposureTime = 0.759969
Binning = 1
CameraIndex = 1
DividedBy2 = 0
OperatingMode = 1
MagIndex = 28
LowDoseConSet = 4
CountsPerElectron = 221.663
TargetDefocus = -3
PriorRecordDose = 87.3716
SubFramePath = 018_12.mrc
NumSubFrames = 10
FrameDosesAndNumber = 0.023687 3  0.035531 7
DateTime = 06-Jun-23  23:10:20
NavigatorLabel = 114
FilterSlitAndLoss = 10 0
UncroppedSize = -4096 -4096

[ZValue = 12]
MinMaxMean = 54 2221 862.504
TiltAngle = -28.0043
StagePosition = 137.177 367.197
StageZ = 17.7335
Magnification = 64000
Intensity = 0.186771
ExposureDose = 2.23843
DoseRate = 6.28511
PixelSpacing = 1.971
SpotSize = 5
Defocus = 2.41099
ImageShift = 0.00609843 0.300205
RotationAngle = 172.9
ExposureTime = 0.759969
Binning = 1
CameraIndex = 1
DividedBy2 = 0
OperatingMode = 1
MagIndex = 28
LowDoseConSet = 4
CountsPerElectron = 221.663
TargetDefocus = -3
PriorRecordDose = 80.6563
SubFramePath = 018_13.mrc
NumSubFrames = 10
FrameDosesAndNumber = 0.023687 3  0.035531 7
DateTime = 06-Jun-23  23:09:01
NavigatorLabel = 114
FilterSlitAndLoss = 10 0
UncroppedSize = -4096 -4096

[ZValue = 13]
MinMaxMean = 70 2202 873.265
TiltAngle = -26.0045
StagePosition = 137.182 367.193
StageZ = 17.7335
Magnification = 64000
Intensity = 0.186771
ExposureDose = 2.23843
DoseRate = 6.3676
PixelSpacing = 1.971
SpotSize = 5
Defocus = 2.41871
ImageShift = 0.0352206 0.272374
RotationAngle = 172.9
ExposureTime = 0.759969
Binning = 1
CameraIndex = 1
DividedBy2 = 0
OperatingMode = 1
MagIndex = 28
LowDoseConSet = 4
CountsPerElectron = 221.663
TargetDefocus = -3
PriorRecordDose = 78.4179
SubFramePath = 018_14.mrc
NumSubFrames = 10
FrameDosesAndNumber = 0.023687 3  0.035531 7
DateTime = 06-Jun-23  23:08:35
NavigatorLabel = 114
FilterSlitAndLoss = 10 0
UncroppedSize = -4096 -4096

[ZValue = 14]
MinMaxMean = 99 2264 882.61
TiltAngle = -24.0058
StagePosition = 137.173 367.158
StageZ = 17.7335
Magnification = 64000
Intensity = 0.186771
ExposureDose = 2.23843
DoseRate = 6.47492
PixelSpacing = 1.971
SpotSize = 5
Defocus = 2.4457
ImageShift = 0.0357086 0.226149
RotationAngle = 172.9
ExposureTime = 0.759969
Binning = 1
CameraIndex = 1
DividedBy2 = 0
OperatingMode = 1
MagIndex = 28
LowDoseConSet = 4
CountsPerElectron = 221.663
TargetDefocus = -3
PriorRecordDose = 71.7026
SubFramePath = 018_15.mrc
NumSubFrames = 10
FrameDosesAndNumber = 0.023687 3  0.035531 7
DateTime = 06-Jun-23  23:07:14
NavigatorLabel = 114
FilterSlitAndLoss = 10 0
UncroppedSize = -4096 -4096

[ZValue = 15]
MinMaxMean = 52 2190 891.152
TiltAngle = -22.005
StagePosition = 137.181 367.157
StageZ = 17.7335
Magnification = 64000
Intensity = 0.186771
ExposureDose = 2.23843
DoseRate = 6.51118
PixelSpacing = 1.971
SpotSize = 5
Defocus = 2.45049
ImageShift = 0.0795164 0.188156
RotationAngle = 172.9
ExposureTime = 0.759969
Binning = 1
CameraIndex = 1
DividedBy2 = 0
OperatingMode = 1
MagIndex = 28
LowDoseConSet = 4
CountsPerElectron = 221.663
TargetDefocus = -3
PriorRecordDose = 69.4641
SubFramePath = 018_16.mrc
NumSubFrames = 10
FrameDosesAndNumber = 0.023687 3  0.035531 7
DateTime = 06-Jun-23  23:06:49
NavigatorLabel = 114
FilterSlitAndLoss = 10 0
UncroppedSize = -4096 -4096

[ZValue = 16]
MinMaxMean = 74 2316 898.85
TiltAngle = -20.0043
StagePosition = 137.175 367.195
StageZ = 17.7335
Magnification = 64000
Intensity = 0.186771
ExposureDose = 2.23843
DoseRate = 6.60834
PixelSpacing = 1.971
SpotSize = 5
Defocus = 2.53373
ImageShift = 0.0341705 0.213536
RotationAngle = 172.9
ExposureTime = 0.759969
Binning = 1
CameraIndex = 1
DividedBy2 = 0
OperatingMode = 1
MagIndex = 28
LowDoseConSet = 4
CountsPerElectron = 221.663
TargetDefocus = -3
PriorRecordDose = 62.7489
SubFramePath = 018_17.mrc
NumSubFrames = 10
FrameDosesAndNumber = 0.023687 3  0.035531 7
DateTime = 06-Jun-23  23:05:31
NavigatorLabel = 114
FilterSlitAndLoss = 10 0
UncroppedSize = -4096 -4096

[ZValue = 17]
MinMaxMean = 86 2116 905.667
TiltAngle = -18.004
StagePosition = 137.18 367.189
StageZ = 17.7335
Magnification = 64000
Intensity = 0.186771
ExposureDose = 2.23843
DoseRate = 6.65945
PixelSpacing = 1.971
SpotSize = 5
Defocus = 2.5542
ImageShift = 0.0637108 0.175369
RotationAngle = 172.9
ExposureTime = 0.759969
Binning = 1
CameraIndex = 1
DividedBy2 = 0
OperatingMode = 1
MagIndex = 28
LowDoseConSet = 4
CountsPerElectron = 221.663
TargetDefocus = -3
PriorRecordDose = 60.5104
SubFramePath = 018_18.mrc
NumSubFrames = 10
FrameDosesAndNumber = 0.023687 3  0.035531 7
DateTime = 06-Jun-23  23:05:05
NavigatorLabel = 114
FilterSlitAndLoss = 10 0
UncroppedSize = -4096 -4096

[ZValue = 18]
MinMaxMean = 76 2187 912.033
TiltAngle = -16.0063
StagePosition = 137.173 367.16
StageZ = 17.7335
Magnification = 64000
Intensity = 0.186771
ExposureDose = 2.23843
DoseRate = 6.71607
PixelSpacing = 1.971
SpotSize = 5
Defocus = 2.59939
ImageShift = 0.061423 0.154695
RotationAngle = 172.9
ExposureTime = 0.759969
Binning = 1
CameraIndex = 1
DividedBy2 = 0
OperatingMode = 1
MagIndex = 28
LowDoseConSet = 4
CountsPerElectron = 221.663
TargetDefocus = -3
PriorRecordDose = 53.7951
SubFramePath = 018_19.mrc
NumSubFrames = 10
FrameDosesAndNumber = 0.023687 3  0.035531 7
DateTime = 06-Jun-23  23:03:47
NavigatorLabel = 114
FilterSlitAndLoss = 10 0
UncroppedSize = -4096 -4096

[ZValue = 19]
MinMaxMean = 108 2163 917.622
TiltAngle = -14.005
StagePosition = 137.184 367.159
StageZ = 17.7335
Magnification = 64000
Intensity = 0.186771
ExposureDose = 2.23843
DoseRate = 6.76076
PixelSpacing = 1.971
SpotSize = 5
Defocus = 2.6154
ImageShift = 0.0888584 0.126037
RotationAngle = 172.9
ExposureTime = 0.759969
Binning = 1
CameraIndex = 1
DividedBy2 = 0
OperatingMode = 1
MagIndex = 28
LowDoseConSet = 4
CountsPerElectron = 221.663
TargetDefocus = -3
PriorRecordDose = 51.5567
SubFramePath = 018_20.mrc
NumSubFrames = 10
FrameDosesAndNumber = 0.023687 3  0.035531 7
DateTime = 06-Jun-23  23:03:22
NavigatorLabel = 114
FilterSlitAndLoss = 10 0
UncroppedSize = -4096 -4096

[ZValue = 20]
MinMaxMean = 39 2216 922.58
TiltAngle = -12.0068
StagePosition = 137.176 367.199
StageZ = 17.7335
Magnification = 64000
Intensity = 0.186771
ExposureDose = 2.23843
DoseRate = 6.81846
PixelSpacing = 1.971
SpotSize = 5
Defocus = 2.66251
ImageShift = 0.0463282 0.177751
RotationAngle = 172.9
ExposureTime = 0.759969
Binning = 1
CameraIndex = 1
DividedBy2 = 0
OperatingMode = 1
MagIndex = 28
LowDoseConSet = 4
CountsPerElectron = 221.663
TargetDefocus = -3
PriorRecordDose = 44.8414
SubFramePath = 018_21.mrc
NumSubFrames = 10
FrameDosesAndNumber = 0.023687 3  0.035531 7
DateTime = 06-Jun-23  23:02:02
NavigatorLabel = 114
FilterSlitAndLoss = 10 0
UncroppedSize = -4096 -4096

[ZValue = 21]
MinMaxMean = 82 2408 927.053
TiltAngle = -10.007
StagePosition = 137.176 367.178
StageZ = 17.7335
Magnification = 64000
Intensity = 0.186771
ExposureDose = 2.23843
DoseRate = 6.84953
PixelSpacing = 1.971
SpotSize = 5
Defocus = 2.67754
ImageShift = 0.0593919 0.156329
RotationAngle = 172.9
ExposureTime = 0.759969
Binning = 1
CameraIndex = 1
DividedBy2 = 0
OperatingMode = 1
MagIndex = 28
LowDoseConSet = 4
CountsPerElectron = 221.663
TargetDefocus = -3
PriorRecordDose = 42.603
SubFramePath = 018_22.mrc
NumSubFrames = 10
FrameDosesAndNumber = 0.023687 3  0.035531 7
DateTime = 06-Jun-23  23:01:37
NavigatorLabel = 114
FilterSlitAndLoss = 10 0
UncroppedSize = -4096 -4096

[ZValue = 22]
MinMaxMean = 84 2302 929.933
TiltAngle = -8.01075
StagePosition = 137.174 367.16
StageZ = 17.7335
Magnification = 64000
Intensity = 0.186771
ExposureDose = 2.23843
DoseRate = 6.87332
PixelSpacing = 1.971
SpotSize = 5
Defocus = 2.68558
ImageShift = 0.0216485 0.231415
RotationAngle = 172.9
ExposureTime = 0.759969
Binning = 1
CameraIndex = 1
DividedBy2 = 0
OperatingMode = 1
MagIndex = 28
LowDoseConSet = 4
CountsPerElectron = 221.663
TargetDefocus = -3
PriorRecordDose = 35.8877
SubFramePath = 018_23.mrc
NumSubFrames = 10
FrameDosesAndNumber = 0.023687 3  0.035531 7
DateTime = 06-Jun-23  23:00:22
NavigatorLabel = 114
FilterSlitAndLoss = 10 0
UncroppedSize = -4096 -4096

[ZValue = 23]
MinMaxMean = 107 2282 933.784
TiltAngle = -6.0075
StagePosition = 137.174 367.2
StageZ = 17.7335
Magnification = 64000
Intensity = 0.186771
ExposureDose = 2.23843
DoseRate = 6.92808
PixelSpacing = 1.971
SpotSize = 5
Defocus = 2.68358
ImageShift = 0.0449055 0.179922
RotationAngle = 172.9
ExposureTime = 0.759969
Binning = 1
CameraIndex = 1
DividedBy2 = 0
OperatingMode = 1
MagIndex = 28
LowDoseConSet = 4
CountsPerElectron = 221.663
TargetDefocus = -3
PriorRecordDose = 33.6493
SubFramePath = 018_24.mrc
NumSubFrames = 10
FrameDosesAndNumber = 0.023687 3  0.035531 7
DateTime = 06-Jun-23  22:59:56
NavigatorLabel = 114
FilterSlitAndLoss = 10 0
UncroppedSize = -4096 -4096

[ZValue = 24]
MinMaxMean = 127 2307 936.764
TiltAngle = -4.00624
StagePosition = 137.188 367.172
StageZ = 17.7335
Magnification = 64000
Intensity = 0.186771
ExposureDose = 2.23843
DoseRate = 6.95809
PixelSpacing = 1.971
SpotSize = 5
Defocus = 2.69201
ImageShift = 0.0573325 0.12364
RotationAngle = 172.9
ExposureTime = 0.759969
Binning = 1
CameraIndex = 1
DividedBy2 = 0
OperatingMode = 1
MagIndex = 28
LowDoseConSet = 4
CountsPerElectron = 221.663
TargetDefocus = -3
PriorRecordDose = 26.934
SubFramePath = 018_25.mrc
NumSubFrames = 10
FrameDosesAndNumber = 0.023687 3  0.035531 7
DateTime = 06-Jun-23  22:58:41
NavigatorLabel = 114
FilterSlitAndLoss = 10 0
UncroppedSize = -4096 -4096

[ZValue = 25]
MinMaxMean = 135 2311 938.557
TiltAngle = -2.00799
StagePosition = 137.173 367.156
StageZ = 17.7335
Magnification = 64000
Intensity = 0.186771
ExposureDose = 2.23843
DoseRate = 6.96509
PixelSpacing = 1.971
SpotSize = 5
Defocus = 2.66255
ImageShift = 0.0582691 0.12386
RotationAngle = 172.9
ExposureTime = 0.759969
Binning = 1
CameraIndex = 1
DividedBy2 = 0
OperatingMode = 1
MagIndex = 28
LowDoseConSet = 4
CountsPerElectron = 221.663
TargetDefocus = -3
PriorRecordDose = 24.6956
SubFramePath = 018_26.mrc
NumSubFrames = 10
FrameDosesAndNumber = 0.023687 3  0.035531 7
DateTime = 06-Jun-23  22:58:16
NavigatorLabel = 114
FilterSlitAndLoss = 10 0
UncroppedSize = -4096 -4096

[ZValue = 26]
MinMaxMean = 72 2318 939.506
TiltAngle = -0.0112337
StagePosition = 137.178 367.161
StageZ = 17.7335
Magnification = 64000
Intensity = 0.186771
ExposureDose = 2.23843
DoseRate = 6.98031
PixelSpacing = 1.971
SpotSize = 5
Defocus = 2.68472
ImageShift = 0.0562502 0.105231
RotationAngle = 172.9
ExposureTime = 0.759969
Binning = 1
CameraIndex = 1
DividedBy2 = 0
OperatingMode = 1
MagIndex = 28
LowDoseConSet = 4
CountsPerElectron = 221.663
TargetDefocus = -3
PriorRecordDose = 17.9803
SubFramePath = 018_27.mrc
NumSubFrames = 10
FrameDosesAndNumber = 0.023687 3  0.035531 7
DateTime = 06-Jun-23  22:56:59
NavigatorLabel = 114
FilterSlitAndLoss = 10 0
UncroppedSize = -4096 -4096

[ZValue = 27]
MinMaxMean = 81 2274 941.068
TiltAngle = 1.99052
StagePosition = 137.178 367.164
StageZ = 17.7335
Magnification = 64000
Intensity = 0.186771
ExposureDose = 2.23843
DoseRate = 6.9854
PixelSpacing = 1.971
SpotSize = 5
Defocus = 2.72915
ImageShift = 0.0563695 0.092809
RotationAngle = 172.9
ExposureTime = 0.759969
Binning = 1
CameraIndex = 1
DividedBy2 = 0
OperatingMode = 1
MagIndex = 28
LowDoseConSet = 4
CountsPerElectron = 221.663
TargetDefocus = -3
PriorRecordDose = 15.7418
SubFramePath = 018_28.mrc
NumSubFrames = 10
FrameDosesAndNumber = 0.023687 3  0.035531 7
DateTime = 06-Jun-23  22:56:34
NavigatorLabel = 114
FilterSlitAndLoss = 10 0
UncroppedSize = -4096 -4096

[ZValue = 28]
MinMaxMean = 98 2278 941.477
TiltAngle = 3.98928
StagePosition = 137.178 367.189
StageZ = 17.7335
Magnification = 64000
Intensity = 0.186771
ExposureDose = 2.23843
DoseRate = 6.98862
PixelSpacing = 1.971
SpotSize = 5
Defocus = 2.76445
ImageShift = 0.0402058 0.0962338
RotationAngle = 172.9
ExposureTime = 0.759969
Binning = 1
CameraIndex = 1
DividedBy2 = 0
OperatingMode = 1
MagIndex = 28
LowDoseConSet = 4
CountsPerElectron = 221.663
TargetDefocus = -3
PriorRecordDose = 9.02655
SubFramePath = 018_29.mrc
NumSubFrames = 10
FrameDosesAndNumber = 0.023687 3  0.035531 7
DateTime = 06-Jun-23  22:55:20
NavigatorLabel = 114
FilterSlitAndLoss = 10 0
UncroppedSize = -4096 -4096

[ZValue = 29]
MinMaxMean = 89 2187 940.569
TiltAngle = 5.99103
StagePosition = 137.176 367.169
StageZ = 17.7335
Magnification = 64000
Intensity = 0.186771
ExposureDose = 2.23843
DoseRate = 6.99207
PixelSpacing = 1.971
SpotSize = 5
Defocus = 2.78944
ImageShift = 0.0227129 0.116027
RotationAngle = 172.9
ExposureTime = 0.759969
Binning = 1
CameraIndex = 1
DividedBy2 = 0
OperatingMode = 1
MagIndex = 28
LowDoseConSet = 4
CountsPerElectron = 221.663
TargetDefocus = -3
PriorRecordDose = 6.78812
SubFramePath = 018_30.mrc
NumSubFrames = 10
FrameDosesAndNumber = 0.023687 3  0.035531 7
DateTime = 06-Jun-23  22:54:55
NavigatorLabel = 114
FilterSlitAndLoss = 10 0
UncroppedSize = -4096 -4096

[ZValue = 30]
MinMaxMean = 79 2251 940.566
TiltAngle = 7.97729
StagePosition = 137.177 367.178
StageZ = 17.7335
Magnification = 64000
Intensity = 0.186771
ExposureDose = 2.23843
DoseRate = 6.96578
PixelSpacing = 1.971
SpotSize = 5
Defocus = 2.84384
ImageShift = 0.0490058 -0.0060007
RotationAngle = 172.9
ExposureTime = 0.759969
Binning = 1
CameraIndex = 1
DividedBy2 = 0
OperatingMode = 1
MagIndex = 28
LowDoseConSet = 4
CountsPerElectron = 221.663
TargetDefocus = -3
PriorRecordDose = 0.0728312
SubFramePath = 018_31.mrc
NumSubFrames = 10
FrameDosesAndNumber = 0.023687 3  0.035531 7
DateTime = 06-Jun-23  22:53:42
NavigatorLabel = 114
FilterSlitAndLoss = 10 0
UncroppedSize = -4096 -4096

[ZValue = 31]
MinMaxMean = 71 2292 938.567
TiltAngle = 9.98604
StagePosition = 137.17 367.161
StageZ = 17.7335
Magnification = 64000
Intensity = 0.186771
ExposureDose = 2.23843
DoseRate = 6.96352
PixelSpacing = 1.971
SpotSize = 5
Defocus = 2.80967
ImageShift = -0.0465401 0.177311
RotationAngle = 172.9
ExposureTime = 0.759969
Binning = 1
CameraIndex = 1
DividedBy2 = 0
OperatingMode = 1
MagIndex = 28
LowDoseConSet = 4
CountsPerElectron = 221.663
TargetDefocus = -3
PriorRecordDose = 2.31126
SubFramePath = 018_32.mrc
NumSubFrames = 10
FrameDosesAndNumber = 0.023687 3  0.035531 7
DateTime = 06-Jun-23  22:54:06
NavigatorLabel = 114
FilterSlitAndLoss = 10 0
UncroppedSize = -4096 -4096

[ZValue = 32]
MinMaxMean = 72 2283 939.417
TiltAngle = 11.9893
StagePosition = 137.178 367.198
StageZ = 17.7335
Magnification = 64000
Intensity = 0.186771
ExposureDose = 2.23843
DoseRate = 6.97594
PixelSpacing = 1.971
SpotSize = 5
Defocus = 2.85841
ImageShift = -0.00753663 0.0944151
RotationAngle = 172.9
ExposureTime = 0.759969
Binning = 1
CameraIndex = 1
DividedBy2 = 0
OperatingMode = 1
MagIndex = 28
LowDoseConSet = 4
CountsPerElectron = 221.663
TargetDefocus = -3
PriorRecordDose = 4.54969
SubFramePath = 018_33.mrc
NumSubFrames = 10
FrameDosesAndNumber = 0.023687 3  0.035531 7
DateTime = 06-Jun-23  22:54:29
NavigatorLabel = 114
FilterSlitAndLoss = 10 0
UncroppedSize = -4096 -4096

[ZValue = 33]
MinMaxMean = 63 2248 936.917
TiltAngle = 13.9901
StagePosition = 137.172 367.165
StageZ = 17.7335
Magnification = 64000
Intensity = 0.186771
ExposureDose = 2.23843
DoseRate = 6.95032
PixelSpacing = 1.971
SpotSize = 5
Defocus = 2.90724
ImageShift = 0.0021291 0.128715
RotationAngle = 172.9
ExposureTime = 0.759969
Binning = 1
CameraIndex = 1
DividedBy2 = 0
OperatingMode = 1
MagIndex = 28
LowDoseConSet = 4
CountsPerElectron = 221.663
TargetDefocus = -3
PriorRecordDose = 11.265
SubFramePath = 018_34.mrc
NumSubFrames = 10
FrameDosesAndNumber = 0.023687 3  0.035531 7
DateTime = 06-Jun-23  22:55:44
NavigatorLabel = 114
FilterSlitAndLoss = 10 0
UncroppedSize = -4096 -4096

[ZValue = 34]
MinMaxMean = 78 2337 935.832
TiltAngle = 15.9863
StagePosition = 137.177 367.185
StageZ = 17.7335
Magnification = 64000
Intensity = 0.186771
ExposureDose = 2.23843
DoseRate = 6.97198
PixelSpacing = 1.971
SpotSize = 5
Defocus = 2.94422
ImageShift = 0.00905213 0.140143
RotationAngle = 172.9
ExposureTime = 0.759969
Binning = 1
CameraIndex = 1
DividedBy2 = 0
OperatingMode = 1
MagIndex = 28
LowDoseConSet = 4
CountsPerElectron = 221.663
TargetDefocus = -3
PriorRecordDose = 13.5034
SubFramePath = 018_35.mrc
NumSubFrames = 10
FrameDosesAndNumber = 0.023687 3  0.035531 7
DateTime = 06-Jun-23  22:56:08
NavigatorLabel = 114
FilterSlitAndLoss = 10 0
UncroppedSize = -4096 -4096

[ZValue = 35]
MinMaxMean = 114 2253 932.747
TiltAngle = 17.9886
StagePosition = 137.17 367.186
StageZ = 17.7335
Magnification = 64000
Intensity = 0.186771
ExposureDose = 2.23843
DoseRate = 6.91922
PixelSpacing = 1.971
SpotSize = 5
Defocus = 2.96029
ImageShift = 0.0310516 0.134088
RotationAngle = 172.9
ExposureTime = 0.759969
Binning = 1
CameraIndex = 1
DividedBy2 = 0
OperatingMode = 1
MagIndex = 28
LowDoseConSet = 4
CountsPerElectron = 221.663
TargetDefocus = -3
PriorRecordDose = 20.2187
SubFramePath = 018_36.mrc
NumSubFrames = 10
FrameDosesAndNumber = 0.023687 3  0.035531 7
DateTime = 06-Jun-23  22:57:23
NavigatorLabel = 114
FilterSlitAndLoss = 10 0
UncroppedSize = -4096 -4096

[ZValue = 36]
MinMaxMean = 73 2412 930.961
TiltAngle = 19.9878
StagePosition = 137.177 367.204
StageZ = 17.7335
Magnification = 64000
Intensity = 0.186771
ExposureDose = 2.23843
DoseRate = 6.86716
PixelSpacing = 1.971
SpotSize = 5
Defocus = 2.97405
ImageShift = 0.0429375 0.125287
RotationAngle = 172.9
ExposureTime = 0.759969
Binning = 1
CameraIndex = 1
DividedBy2 = 0
OperatingMode = 1
MagIndex = 28
LowDoseConSet = 4
CountsPerElectron = 221.663
TargetDefocus = -3
PriorRecordDose = 22.4571
SubFramePath = 018_37.mrc
NumSubFrames = 10
FrameDosesAndNumber = 0.023687 3  0.035531 7
DateTime = 06-Jun-23  22:57:50
NavigatorLabel = 114
FilterSlitAndLoss = 10 0
UncroppedSize = -4096 -4096

[ZValue = 37]
MinMaxMean = 69 2247 926.649
TiltAngle = 21.9911
StagePosition = 137.171 367.201
StageZ = 17.7335
Magnification = 64000
Intensity = 0.186771
ExposureDose = 2.23843
DoseRate = 6.86737
PixelSpacing = 1.971
SpotSize = 5
Defocus = 2.9737
ImageShift = 0.0465793 0.154978
RotationAngle = 172.9
ExposureTime = 0.759969
Binning = 1
CameraIndex = 1
DividedBy2 = 0
OperatingMode = 1
MagIndex = 28
LowDoseConSet = 4
CountsPerElectron = 221.663
TargetDefocus = -3
PriorRecordDose = 29.1724
SubFramePath = 018_38.mrc
NumSubFrames = 10
FrameDosesAndNumber = 0.023687 3  0.035531 7
DateTime = 06-Jun-23  22:59:06
NavigatorLabel = 114
FilterSlitAndLoss = 10 0
UncroppedSize = -4096 -4096

[ZValue = 38]
MinMaxMean = 128 2271 922.181
TiltAngle = 23.9898
StagePosition = 137.171 367.165
StageZ = 17.7335
Magnification = 64000
Intensity = 0.186771
ExposureDose = 2.23843
DoseRate = 6.81407
PixelSpacing = 1.971
SpotSize = 5
Defocus = 2.97583
ImageShift = 0.0878927 0.0880944
RotationAngle = 172.9
ExposureTime = 0.759969
Binning = 1
CameraIndex = 1
DividedBy2 = 0
OperatingMode = 1
MagIndex = 28
LowDoseConSet = 4
CountsPerElectron = 221.663
TargetDefocus = -3
PriorRecordDose = 31.4108
SubFramePath = 018_39.mrc
NumSubFrames = 10
FrameDosesAndNumber = 0.023687 3  0.035531 7
DateTime = 06-Jun-23  22:59:30
NavigatorLabel = 114
FilterSlitAndLoss = 10 0
UncroppedSize = -4096 -4096

[ZValue = 39]
MinMaxMean = 120 2201 916.982
TiltAngle = 25.9861
StagePosition = 137.174 367.157
StageZ = 17.7335
Magnification = 64000
Intensity = 0.186771
ExposureDose = 2.23843
DoseRate = 6.7619
PixelSpacing = 1.971
SpotSize = 5
Defocus = 2.94353
ImageShift = 0.108165 0.0918886
RotationAngle = 172.9
ExposureTime = 0.759969
Binning = 1
CameraIndex = 1
DividedBy2 = 0
OperatingMode = 1
MagIndex = 28
LowDoseConSet = 4
CountsPerElectron = 221.663
TargetDefocus = -3
PriorRecordDose = 38.1261
SubFramePath = 018_40.mrc
NumSubFrames = 10
FrameDosesAndNumber = 0.023687 3  0.035531 7
DateTime = 06-Jun-23  23:00:47
NavigatorLabel = 114
FilterSlitAndLoss = 10 0
UncroppedSize = -4096 -4096

[ZValue = 40]
MinMaxMean = 91 2163 911.869
TiltAngle = 27.9918
StagePosition = 137.176 367.192
StageZ = 17.7335
Magnification = 64000
Intensity = 0.186771
ExposureDose = 2.23843
DoseRate = 6.72139
PixelSpacing = 1.971
SpotSize = 5
Defocus = 2.99029
ImageShift = 0.135006 0.0733089
RotationAngle = 172.9
ExposureTime = 0.759969
Binning = 1
CameraIndex = 1
DividedBy2 = 0
OperatingMode = 1
MagIndex = 28
LowDoseConSet = 4
CountsPerElectron = 221.663
TargetDefocus = -3
PriorRecordDose = 40.3646
SubFramePath = 018_41.mrc
NumSubFrames = 10
FrameDosesAndNumber = 0.023687 3  0.035531 7
DateTime = 06-Jun-23  23:01:11
NavigatorLabel = 114
FilterSlitAndLoss = 10 0
UncroppedSize = -4096 -4096

[ZValue = 41]
MinMaxMean = 76 2246 906.099
TiltAngle = 29.9871
StagePosition = 137.169 367.159
StageZ = 17.7335
Magnification = 64000
Intensity = 0.186771
ExposureDose = 2.23843
DoseRate = 6.662
PixelSpacing = 1.971
SpotSize = 5
Defocus = 2.97633
ImageShift = 0.108292 0.13765
RotationAngle = 172.9
ExposureTime = 0.759969
Binning = 1
CameraIndex = 1
DividedBy2 = 0
OperatingMode = 1
MagIndex = 28
LowDoseConSet = 4
CountsPerElectron = 221.663
TargetDefocus = -3
PriorRecordDose = 47.0798
SubFramePath = 018_42.mrc
NumSubFrames = 10
FrameDosesAndNumber = 0.023687 3  0.035531 7
DateTime = 06-Jun-23  23:02:28
NavigatorLabel = 114
FilterSlitAndLoss = 10 0
UncroppedSize = -4096 -4096

[ZValue = 42]
MinMaxMean = 91 2353 899.544
TiltAngle = 31.9868
StagePosition = 137.175 367.154
StageZ = 17.7335
Magnification = 64000
Intensity = 0.186771
ExposureDose = 2.23843
DoseRate = 6.61957
PixelSpacing = 1.971
SpotSize = 5
Defocus = 3.03745
ImageShift = 0.157862 0.0931415
RotationAngle = 172.9
ExposureTime = 0.759969
Binning = 1
CameraIndex = 1
DividedBy2 = 0
OperatingMode = 1
MagIndex = 28
LowDoseConSet = 4
CountsPerElectron = 221.663
TargetDefocus = -3
PriorRecordDose = 49.3183
SubFramePath = 018_43.mrc
NumSubFrames = 10
FrameDosesAndNumber = 0.023687 3  0.035531 7
DateTime = 06-Jun-23  23:02:55
NavigatorLabel = 114
FilterSlitAndLoss = 10 0
UncroppedSize = -4096 -4096

[ZValue = 43]
MinMaxMean = 81 2207 891.552
TiltAngle = 33.9896
